1554696936.00
64.000000
-0.00
-0.00
-0.00
-0.00
-0.00
-0.00
-0.00
-0.00
-0.00
-0.00
0.00
0.01
0.01
-0.00
-0.03
-0.05
-0.05
0.00
0.13
0.36
0.66
1.01
1.37
1.72
2.06
2.40
2.79
3.24
3.80
4.42
5.06
5.66
6.20
6.68
7.15
7.68
8.31
9.14
10.09
11.04
11.88
12.56
13.14
13.76
14.65
15.96
17.91
20.32
22.90
25.38
27.58
29.57
31.68
34.32
37.81
42.54
48.15
54.10
59.83
64.97
69.58
74.14
79.34
85.71
93.76
103.00
112.62
121.73
129.77
136.75
143.30
150.75
157.77
166.64
177.95
191.79
206.97
220.57
228.25
225.36
208.53
176.87
132.76
80.05
23.07
-34.94
-92.44
-149.16
-205.23
-260.37
-313.74
-363.87
-409.83
-450.91
-486.50
-515.74
-537.23
-549.22
-549.96
-538.37
-514.21
-478.67
-433.88
-382.45
-327.02
-269.84
-212.63
-156.66
-102.95
-52.37
-5.90
35.58
71.43
101.35
125.50
144.38
158.69
169.15
176.37
180.75
182.57
182.07
179.51
175.23
169.65
163.18
156.15
148.81
141.30
133.69
126.02
118.33
110.68
103.15
95.81
88.70
81.86
75.29
68.97
62.91
57.11
51.60
46.43
41.61
37.16
33.05
29.25
25.72
22.42
19.36
16.54
14.00
11.78
9.86
8.21
6.78
5.47
4.25
3.08
2.02
1.14
0.50
0.12
-0.08
-0.24
-0.54
-1.08
-1.85
-2.71
-3.44
-3.82
-3.80
-3.50
-3.24
-3.35
-4.03
-5.27
-6.75
-8.02
-8.70
-8.65
-8.10
-7.56
-7.62
-8.62
-10.51
-12.80
-14.80
-15.96
-16.08
-15.44
-14.62
-14.23
-14.73
-16.40
-19.35
-23.38
-27.74
-30.86
-30.66
-25.25
-13.99
1.79
19.04
34.04
43.90
47.65
46.33
42.09
37.00
32.21
27.87
23.70
19.69
16.27
14.08
13.45
14.11
15.35
16.36
16.64
16.18
15.42
14.87
14.84
15.33
16.06
16.62
16.75
16.40
15.73
15.07
14.73
14.80
15.06
15.01
13.97
11.38
7.19
1.87
-3.47
-7.41
-8.85
-7.50
-4.16
-0.31
2.43
3.05
1.44
-1.70
-5.30
-8.55
-11.08
-13.02
-14.61
-15.91
-16.76
-16.96
-16.40
-15.29
-14.04
-13.01
-12.37
-11.96
-11.45
-10.54
-9.18
-7.56
-6.06
-5.07
-4.76
-5.03
-5.57
-5.99
-6.01
-5.58
-4.87
-4.25
-4.11
-4.72
-6.15
-8.17
-10.22
-11.48
-11.03
-8.19
-2.82
4.45
12.37
19.43
24.35
26.53
26.16
24.02
21.03
17.87
14.85
12.00
9.28
6.73
4.48
2.58
0.95
-0.60
-2.30
-4.21
-6.18
-7.85
-8.82
-8.83
-7.97
-6.64
-5.40
-4.82
-5.18
-6.41
-8.18
-10.01
-11.48
-12.45
-13.07
-13.72
-14.98
-17.33
-21.02
-25.80
-30.88
-35.02
-36.80
-35.14
-29.59
-20.58
-9.26
2.82
14.21
23.84
31.11
35.88
38.27
38.61
37.34
34.98
32.07
29.00
26.00
23.08
20.12
16.97
13.57
10.04
6.59
3.54
1.17
-0.39
-1.22
-1.60
-1.96
-2.72
-4.13
-6.21
-8.70
-11.23
-13.50
-15.45
-17.32
-19.53
-22.54
-26.60
-31.55
-36.79
-41.26
-43.69
-42.89
-38.20
-29.71
-18.31
-5.50
7.07
18.10
26.86
33.26
37.56
40.08
41.00
40.46
38.64
35.96
33.00
30.40
28.59
27.65
27.37
27.43
27.58
27.81
28.30
29.32
31.03
33.43
36.27
39.24
41.92
43.86
44.60
43.65
40.59
35.17
27.52
18.23
8.29
-1.08
-8.74
-13.89
-16.27
-16.16
-14.32
-11.70
-9.25
-7.74
-7.61
-9.00
-11.76
-15.53
-19.88
-24.38
-28.69
-32.55
-35.77
-38.21
-39.76
-40.36
-40.04
-38.94
-37.31
-35.47
-33.68
-32.11
-30.74
-29.48
-28.20
-26.82
-25.39
-24.07
-23.05
-22.43
-22.25
-22.36
-22.57
-22.67
-22.56
-22.27
-22.02
-22.10
-22.79
-24.28
-26.59
-29.42
-32.15
-33.80
-33.19
-29.28
-21.61
-10.58
2.53
15.93
27.82
36.97
42.94
45.95
46.62
45.55
43.19
39.80
35.57
30.69
25.45
20.09
14.89
10.09
5.89
2.44
-0.23
-2.21
-3.77
-5.20
-6.83
-8.86
-11.28
-13.96
-16.61
-19.00
-20.97
-22.60
-24.11
-25.84
-28.17
-31.38
-35.49
-39.95
-43.64
-44.97
-42.40
-35.04
-23.16
-8.24
7.45
21.65
32.73
40.10
44.05
45.34
44.74
42.83
39.97
36.47
32.64
28.75
24.95
21.27
17.62
13.96
10.32
6.90
4.01
1.96
0.87
0.65
0.96
1.28
1.12
0.19
-1.53
-3.81
-6.29
-8.74
-11.14
-13.76
-17.08
-21.55
-27.35
-34.17
-40.95
-46.08
-47.72
-44.49
-36.06
-23.39
-8.54
6.06
18.38
27.42
33.19
36.40
37.85
38.06
37.17
35.10
31.92
27.87
23.39
18.90
14.66
10.72
7.03
3.56
0.37
-2.33
-4.33
-5.60
-6.39
-7.18
-8.50
-10.73
-13.87
-17.59
-21.40
-24.93
-28.10
-31.21
-34.71
-39.05
-44.48
-50.92
-57.91
-64.55
-69.65
-71.89
-70.26
-64.45
-55.02
-43.39
-31.41
-20.88
-13.02
-8.36
-6.74
-7.52
-9.77
-12.44
-14.35
-14.30
-11.23
-4.56
5.51
17.83
30.44
41.09
47.88
49.83
47.12
40.89
32.67
23.84
15.25
7.12
-0.74
-8.55
-16.12
-22.70
-27.04
-27.75
-23.85
-15.15
-2.35
13.28
30.37
47.86
65.02
81.24
95.69
107.30
114.97
118.02
116.46
111.07
103.02
93.53
83.56
73.67
64.16
55.21
47.01
39.84
34.03
29.96
27.89
27.87
29.62
32.59
36.08
39.36
41.92
43.50
44.10
43.92
43.26
42.41
41.57
40.83
40.01
38.71
36.25
31.89
25.04
15.55
3.87
-9.01
-21.82
-33.37
-42.80
-49.74
-54.27
-56.72
-57.57
-57.32
-56.46
-55.38
-54.37
-53.53
-52.84
-52.24
-51.67
-51.06
-50.31
-49.26
-47.71
-45.52
-42.72
-39.51
-36.17
-33.01
-30.19
-27.74
-25.59
-23.68
-22.00
-20.54
-19.28
-18.19
-17.22
-16.33
-15.53
-14.86
-14.35
-13.98
-13.75
-13.63
-13.61
-13.69
-13.77
-13.73
-13.32
-12.34
-10.67
-8.38
-5.69
-2.88
-0.29
1.88
3.50
4.52
4.97
4.94
4.51
3.79
2.92
1.98
1.06
0.26
-0.39
-0.84
-1.11
-1.28
-1.45
-1.73
-2.14
-2.66
-3.18
-3.60
-3.85
-3.93
-3.90
-3.89
-3.99
-4.25
-4.63
-5.06
-5.46
-5.79
-6.10
-6.49
-7.08
-7.87
-8.75
-9.41
-9.49
-8.63
-6.62
-3.49
0.45
4.72
8.75
12.06
14.32
15.37
15.17
13.83
11.55
8.68
5.62
2.86
0.74
-0.53
-1.01
-0.94
-0.66
-0.50
-0.67
-1.19
-1.95
-2.73
-3.30
-3.52
-3.42
-3.23
-3.20
-3.56
-4.32
-5.32
-6.24
-6.88
-7.15
-7.19
-7.21
-7.46
-8.07
-9.06
-10.27
-11.32
-11.66
-10.58
-7.43
-1.91
5.69
14.44
23.01
30.02
34.53
36.27
35.57
33.14
29.76
26.00
22.24
18.71
15.63
13.19
11.53
10.64
10.34
10.27
10.13
9.67
8.79
7.44
5.62
3.31
0.53
-2.65
-6.03
-9.31
-12.20
-14.48
-16.08
-17.08
-17.65
-18.02
-18.38
-18.87
-19.50
-20.11
-20.38
-19.94
-18.50
-15.98
-12.58
-8.75
-5.05
-1.94
0.28
1.58
2.11
2.13
1.85
1.42
0.93
0.40
-0.15
-0.71
-1.23
-1.66
-1.99
-2.17
-2.19
-2.04
-1.73
-1.27
-0.68
-0.02
0.61
1.07
1.23
0.98
0.33
-0.62
-1.66
-2.59
-3.28
-3.73
-4.02
-4.35
-4.93
-5.92
-7.43
-9.33
-11.32
-12.85
-13.35
-12.38
-9.88
-6.18
-1.97
2.02
5.18
7.24
8.20
8.25
7.66
6.64
5.36
3.94
2.52
1.22
0.17
-0.55
-0.92
-0.99
-0.87
-0.73
-0.69
-0.77
-0.93
-1.06
-1.08
-1.01
-0.96
-1.09
-1.51
-2.20
-2.97
-3.60
-3.89
-3.81
-3.50
-3.21
-3.16
-3.50
-4.21
-5.06
-5.76
-6.00
-5.52
-4.22
-2.21
0.27
2.87
5.30
7.32
8.82
9.75
10.05
9.67
8.60
6.92
4.87
2.82
1.11
0.03
-0.35
-0.17
0.30
0.74
0.95
0.82
0.42
-0.08
-0.53
-0.78
-0.80
-0.65
-0.44
-0.31
-0.32
-0.51
-0.86
-1.33
-1.88
-2.50
-3.20
-4.00
-4.91
-5.87
-6.74
-7.25
-7.10
-6.03
-3.98
-1.17
1.94
4.83
7.09
8.52
9.18
9.19
8.70
7.78
6.50
4.91
3.18
1.51
0.09
-0.93
-1.52
-1.72
-1.63
-1.39
-1.13
-1.00
-1.11
-1.45
-1.97
-2.60
-3.29
-4.07
-5.01
-6.14
-7.41
-8.72
-9.97
-11.13
-12.32
-13.76
-15.62
-17.92
-20.42
-22.74
-24.42
-25.13
-24.70
-23.10
-20.39
-16.67
-12.15
-7.19
-2.36
1.70
4.41
5.49
5.02
3.39
1.09
-1.42
-3.79
-5.78
-7.13
-7.59
-6.83
-4.69
-1.13
3.71
9.58
16.21
23.32
30.52
37.36
43.29
47.82
50.67
51.85
51.58
50.22
48.09
45.40
42.34
39.01
35.47
31.70
27.56
22.89
17.53
11.51
5.07
-1.43
-7.65
-13.36
-18.49
-23.09
-27.23
-30.95
-34.26
-37.14
-39.60
-41.66
-43.38
-44.83
-46.05
-47.02
-47.65
-47.73
-47.06
-45.45
-42.88
-39.48
-35.59
-31.64
-28.07
-25.27
-23.36
-22.18
-21.31
-20.07
-17.79
-14.02
-8.64
-1.94
5.55
13.21
20.60
27.57
34.26
41.05
48.29
56.16
64.40
72.36
79.15
83.94
86.26
86.16
84.12
80.76
76.62
71.95
66.81
61.31
55.66
50.14
44.95
40.02
35.02
29.67
23.84
17.83
12.17
7.39
3.69
0.75
-2.20
-6.03
-11.42
-18.44
-26.54
-34.69
-41.74
-46.88
-49.94
-51.43
-52.38
-53.93
-57.00
-62.01
-68.73
-76.13
-82.44
-85.41
-82.81
-73.25
-56.83
-35.44
-12.23
9.29
26.39
37.81
43.70
45.16
43.40
39.35
33.63
26.75
19.40
12.39
6.39
1.70
-1.85
-4.70
-7.22
-9.49
-11.24
-12.18
-12.22
-11.72
-11.36
-11.88
-13.67
-16.59
-20.04
-23.21
-25.50
-26.77
-27.40
-28.06
-29.52
-32.36
-36.76
-42.33
-47.85
-51.35
-50.51
-43.47
-29.70
-10.49
11.25
32.00
48.80
60.22
66.40
68.48
67.64
64.51
59.18
51.70
42.57
32.87
23.91
16.59
11.11
7.01
3.60
0.46
-2.30
-4.20
-4.87
-4.40
-3.55
-3.39
-4.77
-7.94
-12.30
-16.75
-20.22
-22.18
-22.86
-23.08
-23.85
-26.03
-30.05
-35.81
-42.55
-48.79
-52.38
-51.00
-42.94
-28.02
-7.98
13.94
34.10
49.78
59.98
65.27
66.99
66.23
63.37
58.21
50.63
41.12
30.82
21.12
12.99
6.67
1.74
-2.46
-6.31
-9.75
-12.30
-13.49
-13.25
-12.12
-11.13
-11.39
-13.58
-17.63
-22.74
-27.71
-31.55
-33.86
-35.00
-35.87
-37.53
-40.81
-46.08
-53.09
-60.88
-67.73
-71.34
-69.44
-60.60
-45.05
-24.91
-3.50
15.73
30.54
40.38
46.10
49.01
49.97
49.05
45.85
40.19
32.48
23.77
15.26
7.78
1.54
-3.72
-8.35
-12.49
-15.80
-17.66
-17.42
-14.90
-10.54
-5.46
-1.03
1.56
1.82
0.05
-2.81
-5.73
-8.04
-9.73
-11.35
-13.72
-17.53
-23.19
-30.69
-39.53
-48.56
-55.95
-59.52
-57.39
-48.70
-34.20
-16.07
2.85
20.08
34.27
45.33
53.89
60.53
65.27
67.62
67.05
63.53
57.70
50.78
43.94
37.96
33.04
28.90
25.13
21.53
18.24
15.59
13.89
13.08
12.74
12.13
10.54
7.58
3.36
-1.58
-6.55
-10.98
-14.60
-17.53
-20.21
-23.27
-27.38
-32.99
-40.11
-48.00
-55.10
-59.25
-58.25
-50.57
-35.89
-15.32
8.91
34.03
57.39
76.84
90.85
98.52
99.57
94.39
84.20
70.94
56.93
44.33
34.61
28.30
25.02
23.87
23.86
24.21
24.56
24.84
25.14
25.54
26.02
26.43
26.51
25.98
24.63
22.35
19.22
15.44
11.25
6.86
2.36
-2.20
-6.85
-11.53
-16.16
-20.56
-24.51
-27.71
-29.80
-30.41
-29.25
-26.30
-21.84
-16.50
-11.09
-6.43
-3.18
-1.70
-2.06
-4.03
-7.22
-11.04
-14.84
-18.08
-20.41
-21.84
-22.70
-23.45
-24.45
-25.82
-27.33
-28.59
-29.21
-29.07
-28.38
-27.61
-27.29
-27.82
-29.23
-31.20
-33.20
-34.63
-35.13
-34.65
-33.51
-32.31
-31.68
-32.15
-33.98
-36.91
-40.02
-41.69
-39.94
-33.07
-20.42
-2.90
17.09
36.38
52.15
62.77
68.18
69.43
67.91
64.67
60.19
54.59
48.03
40.92
33.88
27.41
21.67
16.54
11.72
7.05
2.70
-0.94
-3.50
-4.86
-5.35
-5.72
-6.76
-9.06
-12.72
-17.25
-21.85
-25.76
-28.55
-30.37
-31.85
-33.89
-37.32
-42.56
-49.31
-56.37
-61.68
-62.84
-57.94
-46.35
-29.25
-9.30
10.23
26.68
38.74
46.59
51.28
53.86
54.78
53.90
50.89
45.76
39.03
31.62
24.37
17.78
11.95
6.76
2.15
-1.73
-4.54
-6.01
-6.16
-5.48
-4.75
-4.88
-6.47
-9.60
-13.84
-18.43
-22.66
-26.13
-28.92
-31.51
-34.62
-38.90
-44.82
-52.32
-60.66
-68.30
-73.20
-73.35
-67.50
-55.74
-39.50
-21.11
-2.92
13.37
27.03
38.06
46.68
52.96
56.67
57.59
55.79
51.81
46.50
40.72
35.03
29.65
24.56
19.73
15.27
11.43
8.42
6.25
4.60
2.91
0.58
-2.75
-7.11
-12.21
-17.55
-22.74
-27.57
-32.13
-36.70
-41.68
-47.48
-54.36
-62.28
-70.67
-78.36
-83.64
-84.72
-80.24
-69.74
-53.88
-34.17
-12.59
9.05
29.31
47.23
62.16
73.63
81.27
84.96
84.93
81.80
76.51
70.09
63.38
56.99
51.20
46.07
41.58
37.72
34.50
31.84
29.58
27.38
24.81
21.47
17.11
11.77
5.70
-0.65
-6.83
-12.57
-17.90
-23.13
-28.79
-35.35
-43.01
-51.41
-59.54
-65.87
-68.69
-66.63
-59.14
-46.68
-30.63
-12.83
4.89
21.13
35.00
46.04
53.96
58.63
60.02
58.39
54.41
48.99
43.07
37.40
32.34
27.91
23.99
20.53
17.61
15.42
14.04
13.33
12.85
11.98
10.19
7.22
3.14
-1.71
-6.89
-12.04
-17.04
-22.00
-27.27
-33.28
-40.42
-48.82
-58.09
-67.22
-74.62
-78.50
-77.37
-70.56
-58.44
-42.30
-23.97
-5.23
12.44
28.07
41.06
51.08
57.93
61.56
62.15
60.11
56.08
50.79
44.97
39.16
33.76
28.89
24.58
20.84
17.69
15.22
13.46
12.22
11.15
9.71
7.43
4.07
-0.28
-5.27
-10.47
-15.53
-20.34
-24.99
-29.84
-35.35
-42.01
-50.00
-59.00
-67.98
-75.36
-79.37
-78.59
-72.36
-61.03
-45.71
-27.98
-9.47
8.40
24.48
37.94
48.23
55.09
58.57
59.03
57.05
53.33
48.56
43.28
37.88
32.59
27.53
22.82
18.62
15.14
12.50
10.61
9.14
7.51
5.15
1.65
-3.06
-8.69
-14.76
-20.75
-26.37
-31.66
-36.96
-42.78
-49.63
-57.64
-66.46
-75.11
-82.07
-85.60
-84.15
-76.83
-63.63
-45.52
-24.15
-1.58
20.22
39.65
55.63
67.66
75.66
79.89
80.74
78.73
74.46
68.63
62.01
55.34
49.20
43.88
39.44
35.68
32.41
29.48
26.82
24.44
22.24
20.02
17.49
14.41
10.61
6.13
1.16
-3.99
-8.98
-13.55
-17.69
-21.64
-25.78
-30.41
-35.38
-39.93
-42.74
-42.32
-37.36
-27.13
-11.58
8.66
32.30
57.44
81.60
102.02
116.12
122.25
120.15
110.99
96.91
80.27
63.04
46.51
31.45
18.34
7.55
-0.66
-6.33
-9.89
-12.01
-13.49
-14.94
-16.76
-19.11
-22.01
-25.43
-29.23
-33.20
-37.01
-40.36
-43.06
-45.12
-46.78
-48.48
-50.73
-53.99
-58.36
-63.29
-67.49
-69.08
-66.22
-57.96
-44.78
-28.58
-12.04
2.38
13.32
20.71
25.34
28.20
29.85
30.29
29.31
26.89
23.42
19.56
15.95
12.85
10.13
7.45
4.50
1.26
-2.02
-4.94
-7.20
-8.82
-10.13
-11.69
-14.04
-17.49
-21.96
-27.09
-32.36
-37.34
-41.82
-45.84
-49.73
-54.02
-59.26
-65.75
-73.25
-80.83
-86.95
-89.89
-88.40
-82.09
-71.53
-57.94
-42.60
-26.47
-10.08
6.14
21.56
35.16
45.87
52.90
56.17
56.35
54.51
51.69
48.54
45.24
41.70
37.78
33.55
29.29
25.39
22.16
19.67
17.77
16.09
14.25
11.98
9.20
6.02
2.67
-0.65
-3.89
-7.14
-10.68
-14.85
-19.95
-26.12
-33.29
-41.11
-48.92
-55.73
-60.32
-61.41
-57.98
-49.68
-37.01
-21.31
-4.48
11.49
24.98
35.03
41.36
44.13
43.79
40.76
35.48
28.34
19.82
10.44
0.73
-8.83
-17.91
-26.31
-33.95
-40.89
-47.29
-53.39
-59.51
-66.00
-73.16
-81.16
-89.97
-99.43
-109.38
-119.75
-130.73
-142.79
-156.48
-172.21
-189.81
-208.31
-225.71
-239.21
-245.66
-242.40
-228.13
-203.42
-170.68
-133.49
-95.52
-59.45
-26.54
3.20
30.30
55.01
77.00
95.51
109.94
120.45
127.99
134.09
140.22
147.33
155.59
164.55
173.40
181.39
188.01
193.15
196.98
199.86
202.16
204.13
205.82
207.04
207.42
206.51
203.81
198.93
191.60
181.83
170.07
157.16
144.25
132.29
121.63
111.70
101.24
88.94
74.20
57.71
41.23
26.93
16.35
9.64
5.67
2.64
-0.95
-5.63
-10.91
-15.81
-19.55
-21.92
-23.24
-23.96
-24.31
-24.06
-22.80
-20.30
-16.72
-12.68
-8.97
-6.23
-4.70
-4.15
-4.09
-3.94
-3.30
-1.93
0.13
2.68
5.36
7.75
9.47
10.24
10.06
9.09
7.66
6.09
4.64
3.41
2.41
1.56
0.76
-0.09
-1.11
-2.35
-3.90
-5.72
-7.67
-9.47
-10.73
-11.08
-10.27
-8.29
-5.43
-2.22
0.76
3.07
4.53
5.21
5.29
4.91
4.13
2.91
1.28
-0.57
-2.36
-3.81
-4.85
-5.70
-6.77
-8.42
-10.75
-13.49
-16.07
-17.88
-18.55
-18.07
-16.77
-15.18
-13.74
-12.77
-12.35
-12.36
-12.61
-12.92
-13.16
-13.35
-13.58
-13.97
-14.59
-15.38
-16.18
-16.79
-17.10
-17.13
-17.05
-17.04
-17.22
-17.60
-18.08
-18.59
-19.09
-19.59
-20.12
-20.60
-20.89
-20.74
-19.98
-18.56
-16.65
-14.58
-12.77
-11.51
-10.91
-10.82
-10.96
-11.05
-10.90
-10.55
-10.13
-9.84
-9.75
-9.84
-10.06
-10.40
-10.95
-11.82
-13.04
-14.45
-15.71
-16.43
-16.31
-15.29
-13.50
-11.24
-8.77
-6.31
-4.04
-2.16
-0.93
-0.55
-1.09
-2.42
-4.18
-5.94
-7.31
-8.06
-8.16
-7.74
-7.01
-6.16
-5.37
-4.72
-4.17
-3.66
-3.10
-2.47
-1.83
-1.32
-1.05
-1.03
-1.10
-1.11
-0.91
-0.57
-0.28
-0.31
-0.83
-1.82
-3.11
-4.45
-5.66
-6.63
-7.34
-7.78
-7.97
-7.95
-7.78
-7.58
-7.44
-7.40
-7.38
-7.29
-7.02
-6.58
-5.98
-5.28
-4.49
-3.61
-2.67
-1.76
-1.07
-0.78
-0.97
-1.59
-2.37
-3.00
-3.20
-2.82
-1.92
-0.72
0.53
1.57
2.26
2.57
2.54
2.30
2.01
1.75
1.56
1.37
0.99
0.21
-1.11
-2.97
-5.16
-7.33
-9.10
-10.21
-10.60
-10.44
-10.06
-9.79
-9.91
-10.46
-11.36
-12.38
-13.26
-13.82
-13.97
-13.76
-13.27
-12.67
-12.07
-11.56
-11.16
-10.77
-10.21
-9.24
-7.71
-5.56
-2.99
-0.30
2.13
4.08
5.56
6.75
7.91
9.17
10.45
11.55
12.30
12.71
13.05
13.70
14.91
16.69
18.74
20.59
21.74
21.88
20.88
18.82
16.00
12.93
10.37
9.07
9.50
11.56
14.54
17.42
19.29
19.75
18.95
17.27
14.96
11.88
7.66
2.07
-4.64
-11.74
-18.31
-23.62
-27.35
-29.59
-30.56
-30.37
-28.95
-26.25
-22.44
-18.02
-13.72
-10.25
-8.04
-7.10
-7.11
-7.57
-8.01
-8.08
-7.64
-6.67
-5.24
-3.54
-1.80
-0.30
0.70
1.06
0.87
0.36
-0.15
-0.41
-0.34
-0.06
0.19
0.20
-0.15
-0.80
-1.55
-2.23
-2.70
-2.94
-3.02
-3.02
-2.94
-2.69
-2.11
-1.04
0.53
2.47
4.52
6.37
7.79
8.68
9.01
8.84
8.23
7.27
6.09
4.85
3.70
2.72
1.89
1.13
0.36
-0.38
-0.96
-1.24
-1.14
-0.73
-0.18
0.34
0.72
0.93
0.99
0.97
0.87
0.68
0.42
0.10
-0.26
-0.62
-0.95
-1.24
-1.47
-1.56
-1.42
-0.89
0.15
1.79
3.97
6.60
9.47
12.38
15.18
17.78
20.13
22.19
23.83
24.91
25.32
25.03
24.23
23.20
22.27
21.62
21.25
20.89
20.17
18.67
16.06
12.17
6.95
0.47
-7.06
-15.17
-23.20
-30.37
-36.09
-40.28
-43.44
-46.39
-49.77
-53.64
-57.29
-59.67
-59.99
-58.19
-54.94
-51.18
-47.57
-44.14
-40.48
-36.16
-31.21
-26.23
-22.06
-19.36
-18.29
-18.54
-19.63
-21.24
-23.33
-26.05
-29.50
-33.53
-37.74
-41.67
-45.06
-47.96
-50.75
-53.91
-57.85
-62.67
-68.19
-74.06
-79.94
-85.65
-91.17
-96.52
-101.65
-106.30
-110.14
-112.82
-114.26
-114.68
-114.57
-114.59
-115.38
-117.38
-120.74
-125.29
-130.43
-135.30
-138.71
-139.45
-136.42
-128.87
-116.52
-99.57
-78.66
-54.99
-30.28
-6.68
13.60
28.80
38.12
41.80
40.90
36.72
30.26
21.93
11.84
0.13
-12.63
-25.43
-37.12
-46.79
-54.03
-58.89
-61.56
-62.05
-60.12
-55.35
-47.44
-36.48
-23.10
-8.40
6.32
19.73
30.82
38.98
44.10
46.66
47.67
48.54
50.89
56.16
65.25
78.26
94.49
112.72
131.62
150.10
167.49
183.30
196.93
207.54
214.16
216.25
214.24
209.85
205.70
204.64
208.91
219.57
236.30
257.50
280.51
301.91
317.96
325.29
321.74
307.18
283.73
255.17
225.79
198.88
175.93
156.53
139.17
122.34
105.36
88.55
72.81
58.95
47.21
37.21
28.29
20.02
12.39
5.75
0.46
-3.49
-6.61
-9.69
-13.44
-18.14
-23.55
-29.00
-33.83
-37.67
-40.66
-43.28
-46.16
-49.69
-53.79
-57.95
-61.46
-63.68
-64.37
-63.71
-62.25
-60.59
-59.19
-58.19
-57.39
-56.44
-55.04
-53.06
-50.55
-47.68
-44.55
-41.21
-37.66
-33.97
-30.36
-27.18
-24.80
-23.50
-23.30
-24.02
-25.36
-26.89
-28.18
-28.74
-28.12
-26.03
-22.52
-18.02
-13.28
-9.13
-6.23
-4.87
-4.99
-6.30
-8.41
-10.96
-13.63
-16.14
-18.28
-19.93
-21.09
-21.87
-22.38
-22.63
-22.55
-22.02
-21.03
-19.70
-18.25
-16.84
-15.57
-14.39
-13.23
-12.12
-11.23
-10.82
-11.12
-12.29
-14.29
-16.96
-19.98
-22.91
-25.10
-25.80
-24.32
-20.31
-13.99
-6.20
1.85
8.96
14.33
17.67
19.15
19.11
17.83
15.46
12.10
7.97
3.44
-1.03
-5.04
-8.43
-11.24
-13.68
-15.93
-18.06
-19.99
-21.61
-22.82
-23.63
-24.15
-24.51
-24.86
-25.26
-25.72
-26.21
-26.73
-27.37
-28.24
-29.48
-31.10
-32.91
-34.45
-35.05
-34.02
-30.87
-25.57
-18.59
-10.85
-3.37
2.93
7.49
10.12
10.94
10.28
8.57
6.27
3.93
2.08
1.17
1.44
2.74
4.53
5.97
6.15
4.42
0.59
-4.97
-11.47
-17.93
-23.55
-27.83
-30.66
-32.20
-32.70
-32.46
-31.70
-30.65
-29.54
-28.53
-27.69
-26.95
-26.13
-24.95
-23.15
-20.61
-17.33
-13.51
-9.54
-5.89
-2.99
-1.09
-0.25
-0.29
-0.93
-1.94
-3.21
-4.73
-6.50
-8.44
-10.27
-11.58
-11.80
-10.40
-6.97
-1.41
5.93
14.24
22.38
29.19
33.84
36.13
36.45
35.61
34.44
33.50
32.93
32.62
32.33
31.93
31.27
30.22
28.56
26.02
22.45
17.93
12.84
7.80
3.44
0.16
-1.94
-3.09
-3.68
-4.07
-4.49
-4.99
-5.48
-5.87
-6.15
-6.39
-6.73
-7.31
-8.20
-9.36
-10.68
-11.99
-13.16
-14.12
-14.89
-15.50
-15.99
-16.38
-16.63
-16.71
-16.62
-16.32
-15.82
-15.12
-14.22
-13.17
-12.09
-11.16
-10.58
-10.44
-10.74
-11.31
-11.91
-12.24
-12.02
-11.05
-9.27
-6.79
-3.89
-0.95
1.64
3.60
4.80
5.25
5.05
4.35
3.24
1.85
0.29
-1.30
-2.78
-4.06
-5.07
-5.78
-6.21
-6.38
-6.37
-6.25
-6.11
-6.02
-6.06
-6.26
-6.65
-7.26
-8.09
-9.13
-10.32
-11.58
-12.87
-14.17
-15.45
-16.69
-17.71
-18.18
-17.69
-15.90
-12.73
-8.51
-3.93
0.15
2.98
4.16
3.69
1.96
-0.53
-3.23
-5.69
-7.58
-8.70
-8.99
-8.59
-7.79
-6.88
-6.07
-5.38
-4.71
-4.01
-3.36
-2.98
-3.14
-3.93
-5.28
-6.88
-8.44
-9.71
-10.64
-11.26
-11.69
-11.98
-12.24
-12.49
-12.70
-12.58
-11.54
-8.70
-3.17
5.56
17.19
30.58
43.94
55.36
63.33
67.15
66.93
63.39
57.45
50.01
41.78
33.35
25.30
18.11
12.17
7.63
4.30
1.78
-0.41
-2.65
-5.06
-7.52
-9.80
-11.68
-13.12
-14.24
-15.23
-16.24
-17.32
-18.44
-19.53
-20.56
-21.60
-22.77
-24.20
-25.91
-27.80
-29.67
-31.23
-32.16
-32.14
-30.94
-28.43
-24.75
-20.31
-15.81
-12.04
-9.65
-8.92
-9.62
-11.11
-12.51
-12.92
-11.61
-8.08
-2.13
6.10
16.10
27.02
37.80
47.46
55.25
60.84
64.33
66.00
66.22
65.19
62.79
58.62
52.08
42.69
30.38
15.64
-0.42
-16.36
-30.74
-42.35
-50.36
-54.19
-53.50
-48.26
-38.97
-26.85
-13.74
-1.72
7.48
12.98
14.86
13.92
11.17
7.41
3.02
-1.90
-7.29
-12.98
-18.55
-23.47
-27.30
-29.72
-30.61
-30.06
-28.24
-25.50
-22.28
-19.07
-16.36
-14.47
-13.50
-13.34
-13.71
-14.36
-15.11
-15.99
-17.13
-18.71
-20.96
-24.01
-27.79
-31.88
-35.36
-36.90
-35.05
-28.78
-17.94
-3.52
12.58
28.12
41.18
50.69
56.43
58.82
58.46
55.82
51.17
44.68
36.72
27.89
19.03
10.96
4.29
-0.75
-4.30
-6.71
-8.42
-9.81
-11.15
-12.58
-14.19
-16.02
-18.00
-20.06
-22.12
-24.12
-26.11
-28.24
-30.70
-33.69
-37.28
-41.25
-45.00
-47.48
-47.38
-43.50
-35.28
-23.09
-8.35
6.90
20.57
31.21
38.21
41.79
42.54
41.09
37.86
33.14
27.25
20.65
13.99
7.88
2.72
-1.38
-4.56
-7.05
-9.08
-10.81
-12.34
-13.81
-15.38
-17.21
-19.40
-21.96
-24.82
-27.86
-31.03
-34.33
-37.81
-41.58
-45.68
-49.98
-54.04
-56.97
-57.56
-54.52
-47.03
-35.05
-19.52
-2.15
15.14
30.70
43.54
53.38
60.36
64.74
66.72
66.43
64.01
59.73
54.09
47.69
41.19
35.16
30.01
25.98
23.09
21.22
20.12
19.48
18.96
18.19
16.90
14.89
12.10
8.61
4.60
0.30
-4.09
-8.56
-13.20
-18.26
-23.93
-30.07
-36.09
-40.87
-43.02
-41.35
-35.31
-25.26
-12.41
1.61
15.15
26.98
36.38
43.04
46.90
47.99
46.48
42.71
37.20
30.64
23.68
16.88
10.62
5.10
0.42
-3.33
-6.11
-7.88
-8.70
-8.79
-8.47
-8.15
-8.19
-8.85
-10.19
-12.10
-14.32
-16.63
-18.88
-21.18
-23.83
-27.23
-31.71
-37.27
-43.39
-48.98
-52.55
-52.60
-48.07
-38.76
-25.42
-9.61
6.76
21.99
34.90
44.94
52.03
56.34
58.06
57.43
54.82
50.75
45.92
40.96
36.31
32.14
28.40
24.99
21.96
19.46
17.70
16.76
16.40
16.13
15.34
13.55
10.58
6.64
2.20
-2.19
-6.14
-9.49
-12.36
-15.10
-18.16
-22.00
-26.88
-32.71
-38.83
-44.04
-46.84
-45.90
-40.57
-31.16
-18.93
-5.57
7.27
18.44
27.45
34.19
38.74
41.09
41.23
39.26
35.57
30.83
25.79
21.05
16.90
13.32
10.13
7.21
4.62
2.59
1.36
1.01
1.35
1.94
2.21
1.69
0.09
-2.54
-5.89
-9.51
-12.92
-15.82
-18.14
-20.12
-22.21
-24.91
-28.60
-33.34
-38.71
-43.79
-47.29
-47.88
-44.56
-37.03
-25.86
-12.35
1.82
15.08
26.27
34.81
40.59
43.74
44.50
43.09
39.85
35.22
29.78
24.18
18.96
14.48
10.85
7.97
5.68
3.86
2.47
1.57
1.17
1.22
1.43
1.40
0.68
-1.02
-3.73
-7.22
-11.08
-14.88
-18.33
-21.34
-24.05
-26.73
-29.69
-33.15
-37.13
-41.26
-44.78
-46.67
-45.89
-41.73
-34.08
-23.55
-11.27
1.45
13.43
23.90
32.42
38.79
42.90
44.71
44.26
41.82
37.90
33.18
28.33
23.85
19.98
16.77
14.14
11.99
10.26
8.95
8.03
7.46
7.12
6.76
6.01
4.54
2.12
-1.19
-5.04
-8.90
-12.24
-14.84
-16.80
-18.55
-20.64
-23.51
-27.30
-31.79
-36.32
-39.95
-41.58
-40.22
-35.29
-26.89
-15.81
-3.35
8.94
19.75
28.18
33.84
36.75
37.21
35.63
32.46
28.19
23.36
18.50
14.07
10.35
7.47
5.32
3.74
2.56
1.66
1.06
0.76
0.65
0.48
-0.13
-1.58
-4.06
-7.48
-11.49
-15.63
-19.53
-23.11
-26.51
-30.05
-34.07
-38.77
-44.13
-49.92
-55.60
-60.41
-63.41
-63.69
-60.72
-54.50
-45.72
-35.60
-25.57
-16.87
-10.35
-6.41
-5.10
-6.27
-9.66
-14.89
-21.51
-28.94
-36.67
-44.27
-51.44
-57.95
-63.45
-67.38
-68.92
-67.16
-61.30
-51.00
-36.56
-19.04
-0.01
18.76
35.73
49.87
60.78
68.67
74.12
77.82
80.34
82.02
82.94
83.07
82.37
80.95
79.04
76.91
74.83
72.89
71.04
69.16
67.15
64.97
62.67
60.34
58.02
55.73
53.44
51.09
48.59
45.80
42.59
38.83
34.53
29.78
24.81
19.91
15.29
11.11
7.44
4.32
1.83
0.10
-0.81
-0.97
-0.72
-0.58
-1.11
-2.60
-4.92
-7.50
-9.58
-10.56
-10.25
-8.97
-7.36
-6.04
-5.31
-5.08
-4.96
-4.58
-3.81
-2.82
-2.05
-1.88
-2.59
-4.24
-6.67
-9.54
-12.33
-14.36
-14.96
-13.76
-10.87
-7.03
-3.34
-0.87
-0.28
-1.55
-4.07
-7.01
-9.67
-11.69
-13.06
-13.91
-14.37
-14.43
-14.13
-13.59
-13.07
-12.93
-13.41
-14.53
-16.04
-17.53
-18.62
-19.18
-19.42
-19.84
-21.06
-23.52
-27.30
-31.95
-36.42
-39.36
-39.39
-35.66
-28.20
-17.96
-6.57
4.20
13.00
19.20
22.89
24.59
24.93
24.40
23.28
21.72
19.87
17.86
15.83
13.81
11.82
9.92
8.25
7.00
6.28
6.00
5.85
5.38
4.25
2.34
-0.12
-2.73
-5.12
-7.12
-8.85
-10.67
-12.99
-16.21
-20.52
-25.85
-31.71
-37.14
-40.82
-41.36
-37.81
-30.08
-19.09
-6.57
5.53
15.61
22.86
27.26
29.28
29.55
28.51
26.43
23.42
19.71
15.63
11.57
7.89
4.80
2.38
0.61
-0.57
-1.22
-1.43
-1.36
-1.27
-1.47
-2.20
-3.59
-5.58
-7.95
-10.46
-12.88
-15.10
-17.21
-19.44
-22.17
-25.68
-30.02
-34.70
-38.71
-40.66
-39.26
-33.85
-24.73
-13.12
-0.78
10.58
19.80
26.41
30.50
32.39
32.37
30.65
27.49
23.28
18.59
14.00
9.93
6.54
3.78
1.55
-0.15
-1.12
-1.04
0.40
3.31
7.49
12.50
17.76
22.72
26.98
30.39
33.00
34.98
36.45
37.33
37.36
36.08
33.11
28.36
22.20
15.48
9.33
4.78
2.39
2.05
3.06
4.38
5.03
4.35
2.10
-1.70
-6.93
-13.47
-21.23
-29.94
-39.10
-47.94
-55.58
-61.28
-64.62
-65.58
-64.48
-61.78
-57.95
-53.34
-48.25
-42.97
-37.87
-33.35
-29.72
-27.12
-25.45
-24.42
-23.66
-22.86
-21.93
-20.99
-20.37
-20.49
-21.72
-24.27
-27.93
-32.02
-35.38
-36.60
-34.45
-28.27
-18.32
-5.71
7.96
21.09
32.45
41.43
47.86
51.78
53.30
52.49
49.51
44.77
38.89
32.60
26.58
21.26
16.81
13.18
10.22
7.80
5.81
4.18
2.81
1.54
0.14
-1.58
-3.80
-6.47
-9.40
-12.30
-14.91
-17.09
-18.98
-20.89
-23.27
-26.47
-30.58
-35.23
-39.59
-42.51
-42.77
-39.43
-32.22
-21.60
-8.72
4.89
17.73
28.62
36.86
42.24
44.85
45.02
43.12
39.53
34.74
29.26
23.72
18.73
14.77
12.00
10.30
9.31
8.69
8.23
7.90
7.84
8.01
8.16
7.83
6.57
4.12
0.65
-3.33
-7.20
-10.46
-12.97
-14.96
-16.93
-19.44
-22.93
-27.53
-32.92
-38.39
-42.84
-45.03
-43.90
-38.85
-29.99
-18.17
-4.76
8.65
20.70
30.50
37.66
42.24
44.48
44.65
43.01
39.86
35.62
30.89
26.33
22.47
19.58
17.58
16.23
15.24
14.47
13.97
13.79
13.91
14.13
14.06
13.29
11.52
8.69
4.98
0.74
-3.64
-7.83
-11.73
-15.38
-19.05
-23.08
-27.77
-33.22
-39.21
-45.08
-49.76
-52.01
-50.68
-45.16
-35.62
-23.03
-8.95
4.93
17.24
27.16
34.47
39.29
41.84
42.35
40.95
37.89
33.59
28.69
23.88
19.73
16.45
13.96
11.96
10.18
8.56
7.19
6.30
5.95
5.94
5.83
5.13
3.49
0.94
-2.17
-5.33
-8.15
-10.50
-12.58
-14.80
-17.58
-21.26
-25.97
-31.63
-37.89
-44.10
-49.29
-52.28
-52.00
-47.81
-39.85
-29.04
-16.84
-4.79
5.87
14.51
21.02
25.58
28.39
29.57
29.26
27.68
25.31
22.76
20.62
19.28
18.76
18.84
19.15
19.42
19.56
19.64
19.78
20.00
20.13
19.85
18.74
16.48
12.94
8.23
2.71
-3.18
-9.01
-14.51
-19.63
-24.47
-29.28
-34.33
-39.73
-45.30
-50.50
-54.49
-56.24
-54.85
-49.80
-41.19
-29.73
-16.57
-3.01
9.79
20.96
30.05
36.83
41.32
43.58
43.82
42.31
39.46
35.74
31.58
27.35
23.26
19.50
16.16
13.38
11.24
9.75
8.81
8.23
7.82
7.43
6.90
6.07
4.75
2.79
0.15
-2.99
-6.32
-9.53
-12.48
-15.32
-18.40
-22.09
-26.51
-31.46
-36.34
-40.39
-42.79
-42.89
-40.31
-35.02
-27.35
-17.91
-7.53
2.91
12.58
20.79
27.05
31.09
32.87
32.58
30.62
27.53
23.91
20.30
17.04
14.26
11.86
9.66
7.47
5.24
3.04
0.99
-0.85
-2.48
-4.01
-5.47
-6.76
-7.55
-7.32
-5.45
-1.33
5.41
14.80
26.30
38.82
50.79
60.48
66.54
68.35
66.25
61.42
55.47
49.98
46.09
44.27
44.45
46.16
48.76
51.59
54.05
55.63
55.92
54.66
51.86
47.83
43.12
38.37
34.07
30.32
26.89
23.30
19.11
14.11
8.47
2.56
-3.17
-8.39
-13.03
-17.24
-21.35
-25.70
-30.50
-35.80
-41.40
-46.96
-52.11
-56.60
-60.37
-63.56
-66.41
-69.14
-71.82
-74.25
-75.97
-76.26
-74.38
-69.69
-61.94
-51.42
-38.98
-25.82
-13.19
-2.07
7.05
14.08
19.26
22.88
25.21
26.40
26.58
25.90
24.57
22.76
20.63
18.27
15.74
13.11
10.57
8.40
6.84
6.00
5.75
5.72
5.45
4.49
2.59
-0.27
-3.93
-8.16
-12.75
-17.56
-22.49
-27.52
-32.65
-37.84
-42.99
-47.80
-51.72
-54.04
-54.02
-51.22
-45.62
-37.80
-28.69
-19.37
-10.73
-3.28
2.82
7.61
11.18
13.53
14.67
14.62
13.56
11.85
9.87
7.96
6.31
4.95
3.81
2.84
2.03
1.43
1.06
0.90
0.83
0.61
-0.00
-1.19
-2.99
-5.25
-7.68
-9.95
-11.87
-13.48
-15.08
-17.09
-19.86
-23.44
-27.47
-31.32
-34.16
-35.29
-34.24
-30.93
-25.60
-18.80
-11.23
-3.62
3.36
9.23
13.71
16.73
18.40
18.92
18.47
17.22
15.30
12.91
10.34
7.96
6.19
5.29
5.38
6.34
7.89
9.69
11.39
12.78
13.70
14.10
14.03
13.66
13.20
12.86
12.74
12.64
12.13
10.61
7.54
2.68
-3.77
-11.15
-18.49
-24.81
-29.30
-31.49
-31.23
-28.64
-23.91
-17.38
-9.49
-0.91
7.53
14.85
20.26
23.26
23.79
22.22
19.14
15.17
10.81
6.36
2.03
-2.00
-5.52
-8.34
-10.37
-11.68
-12.49
-13.16
-14.02
-15.27
-16.93
-18.86
-20.80
-22.49
-23.74
-24.51
-24.91
-25.18
-25.63
-26.58
-28.19
-30.37
-32.76
-34.76
-35.60
-34.58
-31.21
-25.38
-17.41
-8.04
1.83
11.26
19.49
26.04
30.74
33.65
34.96
34.93
33.87
32.04
29.67
26.94
24.02
21.10
18.39
16.13
14.47
13.46
13.01
12.91
12.99
13.12
13.23
13.26
13.13
12.71
11.87
10.56
8.88
6.95
4.86
2.55
-0.16
-3.39
-6.99
-10.45
-12.90
-13.40
-11.27
-6.36
0.88
9.56
18.58
26.92
33.80
38.77
41.67
42.61
41.95
40.20
37.97
35.80
34.01
32.67
31.61
30.56
29.32
27.84
26.25
24.76
23.56
22.75
22.25
21.90
21.41
20.47
18.80
16.17
12.47
7.74
2.13
-4.08
-10.64
-17.34
-24.02
-30.53
-36.61
-41.86
-45.74
-47.70
-47.25
-44.20
-38.68
-31.24
-22.72
-14.08
-6.21
0.31
5.26
8.74
11.03
12.40
12.98
12.82
11.95
10.46
8.61
6.74
5.14
4.04
3.47
3.38
3.66
4.19
4.85
5.48
5.87
5.75
4.94
3.40
1.33
-0.87
-2.76
-4.00
-4.55
-4.65
-4.76
-5.32
-6.63
-8.70
-11.29
-13.96
-16.15
-17.32
-16.98
-14.82
-10.77
-5.11
1.58
8.58
15.15
20.78
25.18
28.27
30.07
30.62
29.99
28.31
25.86
22.99
20.06
17.31
14.89
12.78
11.03
9.64
8.68
8.07
7.59
6.87
5.48
3.17
-0.07
-3.96
-8.09
-12.09
-15.82
-19.40
-23.20
-27.66
-33.15
-39.76
-47.21
-54.80
-61.49
-66.14
-67.75
-65.75
-60.12
-51.37
-40.37
-28.11
-15.49
-3.25
8.08
18.03
26.22
32.34
36.21
37.83
37.42
35.32
31.94
27.60
22.55
16.96
11.01
5.00
-0.71
-5.71
-9.65
-12.38
-14.02
-15.00
-15.92
-17.47
-20.14
-24.14
-29.34
-35.32
-41.53
-47.50
-52.93
-57.79
-62.32
-66.92
-71.95
-77.51
-83.19
-88.03
-90.56
-89.20
-82.78
-70.96
-54.44
-34.87
-14.37
5.05
21.86
35.30
45.20
51.79
55.42
56.38
54.93
51.46
46.55
41.02
35.74
31.46
28.56
27.03
26.59
26.81
27.39
28.10
28.78
29.22
29.06
27.91
25.42
21.52
16.49
10.89
5.40
0.59
-3.29
-6.39
-9.20
-12.29
-16.18
-21.06
-26.67
-32.33
-37.00
-39.48
-38.73
-34.12
-25.70
-14.24
-1.07
12.26
24.35
34.26
41.54
46.21
48.51
48.74
47.24
44.38
40.64
36.55
32.60
29.12
26.26
23.97
22.14
20.74
19.82
19.51
19.90
20.89
22.13
23.08
23.19
22.00
19.36
15.41
10.52
5.15
-0.40
-6.06
-11.97
-18.44
-25.67
-33.62
-41.91
-49.80
-56.25
-60.08
-60.26
-56.12
-47.68
-35.65
-21.38
-6.50
7.46
19.40
28.76
35.45
39.64
41.60
41.65
40.17
37.66
34.67
31.75
29.28
27.39
26.01
24.92
23.94
22.98
22.04
21.15
20.28
19.25
17.76
15.49
12.21
7.91
2.85
-2.49
-7.53
-11.79
-15.07
-17.53
-19.62
-21.95
-25.05
-29.14
-33.99
-38.96
-43.00
-44.98
-43.94
-39.36
-31.42
-20.94
-9.19
2.49
13.02
21.79
28.62
33.56
36.68
38.00
37.57
35.64
32.68
29.39
26.42
24.17
22.69
21.77
21.09
20.46
19.89
19.51
19.43
19.62
19.79
19.51
18.37
16.13
12.87
8.98
5.02
1.59
-0.96
-2.63
-3.84
-5.24
-7.44
-10.78
-15.13
-19.81
-23.77
-25.82
-24.92
-20.52
-12.76
-2.57
8.51
18.62
26.10
29.87
29.74
26.32
20.83
14.65
9.02
4.83
2.55
2.30
3.90
6.94
10.86
15.05
18.93
22.16
24.67
26.64
28.41
30.31
32.44
34.71
36.82
38.43
39.33
39.56
39.36
39.02
38.67
38.17
37.07
34.78
30.74
24.67
16.70
7.40
-2.29
-11.24
-18.34
-22.82
-24.34
-23.17
-20.03
-15.88
-11.62
-7.90
-5.08
-3.32
-2.69
-3.26
-5.05
-7.94
-11.57
-15.39
-18.82
-21.40
-22.96
-23.57
-23.49
-23.01
-22.31
-21.44
-20.38
-19.14
-17.77
-16.44
-15.41
-14.96
-15.31
-16.45
-18.20
-20.18
-21.97
-23.32
-24.27
-25.17
-26.54
-28.84
-32.20
-36.34
-40.56
-43.90
-45.37
-44.24
-40.21
-33.48
-24.73
-14.94
-5.19
3.59
10.78
16.10
19.50
21.10
21.05
19.49
16.69
13.06
9.16
5.56
2.71
0.81
-0.21
-0.59
-0.60
-0.42
-0.09
0.42
1.12
1.94
2.69
3.18
3.29
3.00
2.40
1.60
0.73
-0.20
-1.26
-2.57
-4.30
-6.56
-9.41
-12.77
-16.44
-20.01
-22.89
-24.39
-23.83
-20.74
-15.04
-7.12
2.25
12.02
21.11
28.60
33.84
36.50
36.52
34.07
29.54
23.45
16.45
9.20
2.33
-3.67
-8.50
-12.01
-14.20
-15.16
-15.02
-13.98
-12.31
-10.41
-8.76
-7.89
-8.25
-10.01
-13.03
-16.88
-20.97
-24.84
-28.29
-31.39
-34.41
-37.68
-41.46
-45.84
-50.59
-54.97
-57.74
-57.38
-52.57
-42.74
-28.52
-11.65
5.49
20.64
32.29
39.89
43.71
44.41
42.63
38.90
33.69
27.56
21.24
15.48
10.83
7.54
5.47
4.31
3.74
3.57
3.79
4.35
5.08
5.59
5.33
3.82
0.84
-3.42
-8.45
-13.55
-18.11
-21.84
-24.75
-27.19
-29.64
-32.58
-36.30
-40.66
-45.05
-48.31
-48.98
-45.71
-37.77
-25.48
-10.20
5.98
20.92
32.99
41.41
46.17
47.69
46.47
42.93
37.46
30.64
23.22
16.10
10.03
5.45
2.32
0.28
-1.14
-2.27
-3.22
-3.92
-4.24
-4.25
-4.21
-4.63
-5.95
-8.41
-11.86
-15.81
-19.61
-22.73
-24.99
-26.57
-27.98
-29.83
-32.64
-36.62
-41.51
-46.43
-49.99
-50.55
-46.74
-37.97
-24.83
-8.96
7.42
22.20
33.97
42.26
47.30
49.60
49.58
47.39
43.09
36.89
29.30
21.08
13.10
6.03
0.20
-4.36
-7.78
-10.22
-11.76
-12.44
-12.46
-12.23
-12.40
-13.66
-16.47
-20.89
-26.50
-32.57
-38.36
-43.37
-47.55
-51.22
-54.97
-59.42
-64.91
-71.32
-77.84
-83.06
-85.18
-82.58
-74.41
-60.99
-43.85
-25.19
-7.26
8.30
20.68
29.71
35.51
38.03
37.10
32.55
24.54
13.73
1.25
-11.57
-23.54
-33.77
-41.78
-47.41
-50.76
-52.13
-51.92
-50.68
-48.90
-47.02
-45.18
-43.23
-40.73
-37.15
-32.10
-25.52
-17.90
-10.20
-3.71
0.37
1.23
-1.25
-6.51
-13.37
-20.33
-25.79
-28.32
-26.89
-21.09
-11.27
1.46
15.47
29.07
40.86
50.09
56.69
61.04
63.78
65.45
66.51
67.25
67.88
68.56
69.43
70.55
71.97
73.70
75.67
77.73
79.64
81.02
81.50
80.75
78.55
74.83
69.70
63.44
56.46
49.20
42.05
35.27
28.85
22.62
16.32
9.76
2.93
-3.94
-10.39
-15.77
-19.40
-20.68
-19.29
-15.37
-9.47
-2.44
4.82
11.54
17.24
21.61
24.42
25.43
24.45
21.50
16.95
11.44
5.70
0.27
-4.62
-9.02
-13.04
-16.69
-19.81
-22.16
-23.59
-24.16
-24.18
-24.03
-24.06
-24.42
-25.05
-25.75
-26.32
-26.66
-26.81
-26.93
-27.23
-27.95
-29.23
-31.06
-33.17
-35.07
-36.04
-35.31
-32.27
-26.68
-18.73
-8.98
1.86
13.14
24.43
35.52
46.40
57.13
67.87
78.71
89.74
100.81
111.57
121.39
129.50
135.13
137.73
137.05
133.21
126.54
117.50
106.56
94.12
80.56
66.20
51.43
36.64
22.25
8.70
-3.68
-14.65
-24.11
-32.09
-38.78
-44.42
-49.23
-53.26
-56.33
-58.02
-57.81
-55.29
-50.38
-43.42
-35.17
-26.58
-18.58
-11.95
-7.15
-4.39
-3.67
-4.81
-7.48
-11.18
-15.38
-19.54
-23.25
-26.23
-28.40
-29.81
-30.56
-30.69
-30.21
-29.10
-27.36
-25.10
-22.56
-20.09
-18.06
-16.68
-15.99
-15.82
-15.93
-16.08
-16.22
-16.48
-17.11
-18.35
-20.35
-23.04
-26.14
-29.19
-31.62
-32.89
-32.59
-30.52
-26.74
-21.54
-15.38
-8.81
-2.34
3.58
8.61
12.54
15.26
16.79
17.22
16.71
15.46
13.67
11.54
9.26
7.00
4.95
3.37
2.51
2.66
4.01
6.53
10.02
14.15
18.57
23.05
27.54
32.05
36.54
40.83
44.59
47.37
48.73
48.28
45.79
41.26
34.92
27.35
19.33
11.68
5.10
-0.09
-3.95
-6.82
-9.12
-11.21
-13.34
-15.72
-18.64
-22.42
-27.38
-33.61
-40.80
-48.34
-55.43
-61.39
-65.90
-69.04
-71.08
-72.27
-72.64
-71.98
-70.03
-66.72
-62.38
-57.70
-53.55
-50.75
-49.87
-51.06
-54.10
-58.44
-63.36
-68.17
-72.36
-75.78
-78.62
-81.31
-84.23
-87.44
-90.48
-92.37
-91.84
-87.73
-79.44
-67.08
-51.58
-34.40
-17.12
-1.16
12.49
23.29
31.09
35.97
38.26
38.49
37.37
35.73
34.37
33.88
34.52
36.21
38.59
41.15
43.40
44.98
45.74
45.69
44.94
43.61
41.76
39.46
36.87
34.24
31.88
30.04
28.71
27.53
25.85
22.91
18.12
11.37
3.12
-5.61
-13.37
-18.63
-20.15
-17.27
-10.11
0.40
12.82
25.54
37.13
46.61
53.52
57.79
59.62
59.35
57.40
54.28
50.58
46.86
43.58
40.95
38.98
37.53
36.43
35.59
35.01
34.66
34.42
34.04
33.18
31.54
28.99
25.60
21.58
17.18
12.55
7.74
2.69
-2.78
-8.90
-15.85
-23.60
-31.75
-39.36
-45.00
-47.17
-44.70
-37.32
-25.83
-11.88
2.55
15.68
26.39
34.20
39.18
41.65
42.02
40.77
38.37
35.36
32.19
29.21
26.59
24.38
22.53
21.01
19.77
18.79
18.00
17.28
16.44
15.20
13.28
10.51
6.87
2.60
-1.91
-6.23
-10.13
-13.62
-16.99
-20.71
-25.21
-30.75
-37.18
-43.88
-49.71
-53.23
-53.02
-48.21
-38.78
-25.66
-10.53
4.78
18.80
30.78
40.64
48.74
55.49
61.07
65.44
68.43
70.02
70.39
69.88
68.93
67.84
66.73
65.55
64.13
62.37
60.26
57.91
55.47
52.96
50.29
47.16
43.21
38.16
31.95
24.80
17.12
9.36
1.80
-5.46
-12.51
-19.49
-26.45
-33.23
-39.50
-44.82
-48.74
-50.95
-51.31
-49.86
-46.82
-42.54
-37.45
-32.05
-26.87
-22.35
-18.83
-16.43
-15.07
-14.47
-14.27
-14.16
-13.93
-13.49
-12.86
-12.07
-11.14
-10.06
-8.83
-7.49
-6.12
-4.83
-3.74
-2.93
-2.45
-2.34
-2.65
-3.41
-4.69
-6.42
-8.46
-10.61
-12.68
-14.66
-16.72
-19.13
-22.05
-25.38
-28.68
-31.30
-32.58
-32.14
-29.96
-26.35
-21.78
-16.71
-11.43
-6.11
-0.85
4.17
8.70
12.40
15.01
16.41
16.68
16.06
14.85
13.32
11.73
10.35
9.51
9.54
10.65
12.81
15.71
18.82
21.67
23.98
25.73
27.04
27.98
28.41
27.97
26.19
22.64
17.04
9.38
-0.23
-11.47
-23.88
-36.79
-49.24
-60.09
-68.10
-72.28
-72.13
-67.83
-60.21
-50.54
-40.21
-30.41
-21.93
-15.15
-10.18
-6.92
-5.22
-4.89
-5.68
-7.29
-9.32
-11.38
-13.11
-14.32
-15.04
-15.50
-16.01
-16.88
-18.32
-20.47
-23.38
-27.06
-31.39
-36.06
-40.62
-44.54
-47.49
-49.47
-50.89
-52.46
-54.92
-58.79
-64.19
-70.75
-77.69
-83.85
-87.90
-88.55
-84.88
-76.63
-64.27
-48.99
-32.34
-15.87
-0.80
12.10
22.52
30.43
35.92
39.17
40.37
39.83
37.98
35.30
32.30
29.38
26.83
24.86
23.57
23.05
23.30
24.23
25.59
27.04
28.16
28.55
27.97
26.35
23.84
20.66
17.02
12.95
8.30
2.71
-4.18
-12.61
-22.44
-33.02
-43.06
-50.80
-54.37
-52.30
-44.02
-30.15
-12.35
7.16
26.20
43.12
57.00
67.52
74.69
78.61
79.48
77.63
73.65
68.31
62.42
56.58
51.13
46.11
41.50
37.32
33.73
30.90
28.88
27.49
26.28
24.69
22.17
18.43
13.52
7.80
1.75
-4.17
-9.74
-14.99
-20.26
-26.02
-32.69
-40.43
-48.90
-57.05
-63.28
-65.72
-62.84
-53.96
-39.58
-21.36
-1.55
17.54
34.22
47.59
57.43
63.92
67.34
67.94
66.02
62.05
56.74
50.88
45.23
40.23
35.96
32.27
28.93
25.83
23.10
20.93
19.41
18.33
17.17
15.28
12.12
7.58
1.96
-4.10
-9.98
-15.29
-20.05
-24.65
-29.65
-35.58
-42.70
-50.84
-59.27
-66.67
-71.32
-71.52
-66.10
-54.90
-38.91
-20.01
-0.44
17.78
33.26
45.32
53.81
58.90
60.90
60.19
57.28
52.82
47.53
42.09
36.96
32.39
28.36
24.75
21.43
18.38
15.71
13.56
11.98
10.75
9.41
7.43
4.39
0.21
-4.82
-10.17
-15.26
-19.80
-23.78
-27.58
-31.77
-36.93
-43.41
-51.09
-59.21
-66.37
-70.76
-70.64
-64.94
-53.62
-37.80
-19.42
-0.66
16.56
30.99
41.99
49.40
53.37
54.18
52.28
48.34
43.20
37.73
32.65
28.31
24.71
21.62
18.76
16.02
13.48
11.36
9.83
8.87
8.11
6.98
4.91
1.55
-3.07
-8.56
-14.30
-19.74
-24.56
-28.81
-32.91
-37.44
-42.96
-49.66
-57.26
-64.81
-70.81
-73.49
-71.33
-63.48
-50.22
-32.90
-13.64
5.33
22.18
35.84
45.99
52.76
56.38
57.03
54.89
50.32
44.00
36.93
30.11
24.26
19.66
16.15
13.35
10.96
8.90
7.28
6.21
5.58
4.98
3.81
1.49
-2.18
-6.98
-12.29
-17.40
-21.76
-25.22
-28.03
-30.72
-33.83
-37.73
-42.44
-47.49
-51.92
-54.39
-53.45
-47.99
-37.68
-23.21
-6.26
10.99
26.43
38.67
47.27
52.62
55.60
57.17
58.10
58.92
60.03
61.72
64.14
67.19
70.48
73.39
75.26
75.67
74.58
72.36
69.53
66.59
63.77
60.93
57.72
53.68
48.48
42.02
34.49
26.30
17.95
9.88
2.33
-4.71
-11.44
-18.19
-25.19
-32.46
-39.76
-46.55
-52.10
-55.71
-56.89
-55.49
-51.78
-46.38
-40.05
-33.55
-27.46
-22.15
-17.79
-14.42
-12.03
-10.49
-9.61
-9.14
-8.77
-8.29
-7.60
-6.75
-5.84
-4.98
-4.17
-3.33
-2.37
-1.24
0.02
1.24
2.21
2.74
2.69
1.97
0.55
-1.55
-4.25
-7.42
-10.92
-14.61
-18.40
-22.26
-26.16
-29.92
-33.26
-35.71
-36.77
-36.03
-33.37
-28.99
-23.42
-17.33
-11.36
-5.98
-1.43
2.18
4.85
6.55
7.26
7.03
6.03
4.52
2.81
1.13
-0.39
-1.74
-2.94
-3.96
-4.71
-5.13
-5.20
-5.08
-4.97
-5.14
-5.76
-6.89
-8.47
-10.36
-12.38
-14.39
-16.32
-18.19
-20.09
-22.16
-24.54
-27.23
-30.07
-32.69
-34.58
-35.20
-34.09
-31.03
-26.14
-19.85
-12.80
-5.72
0.81
6.34
10.66
13.72
15.59
16.39
16.28
15.45
14.10
12.48
10.79
9.24
7.96
7.06
6.55
6.41
6.54
6.77
6.94
6.84
6.38
5.50
4.25
2.72
1.05
-0.64
-2.28
-3.86
-5.45
-7.17
-9.17
-11.58
-14.50
-17.88
-21.45
-24.74
-27.10
-27.93
-26.80
-23.69
-18.94
-13.20
-7.12
-1.24
4.13
8.88
12.93
16.19
18.49
19.73
19.96
19.37
18.29
17.04
15.84
14.75
13.74
12.75
11.76
10.81
9.95
9.20
8.48
7.64
6.46
4.81
2.65
0.09
-2.63
-5.29
-7.75
-10.06
-12.37
-14.96
-18.00
-21.55
-25.42
-29.26
-32.55
-34.71
-35.23
-33.80
-30.39
-25.29
-19.05
-12.28
-5.55
0.75
6.44
11.43
15.67
19.12
21.68
23.29
23.96
23.78
22.90
21.55
19.96
18.37
16.95
15.82
14.99
14.43
14.02
13.60
12.98
11.98
10.46
8.40
5.86
3.02
0.08
-2.80
-5.57
-8.30
-11.15
-14.33
-17.97
-22.08
-26.42
-30.52
-33.74
-35.41
-35.04
-32.53
-28.14
-22.45
-16.16
-9.85
-3.86
1.64
6.55
10.79
14.18
16.54
17.77
17.92
17.16
15.75
13.94
11.96
9.97
8.15
6.67
5.67
5.23
5.29
5.65
6.01
6.05
5.50
4.28
2.48
0.29
-2.00
-4.20
-6.21
-8.10
-10.00
-12.11
-14.60
-17.55
-20.91
-24.40
-27.58
-29.82
-30.49
-29.11
-25.49
-19.87
-12.80
-5.02
2.79
10.14
16.73
22.37
26.89
30.09
31.84
32.13
31.18
29.38
27.19
25.00
23.05
21.46
20.30
19.55
19.21
19.18
19.31
19.40
19.30
18.90
18.17
17.14
15.84
14.33
12.70
11.04
9.40
7.78
5.99
3.77
0.84
-2.95
-7.53
-12.55
-17.41
-21.43
-23.96
-24.57
-23.12
-19.82
-15.13
-9.63
-3.94
1.36
5.78
8.95
10.66
10.92
9.97
8.16
5.94
3.67
1.57
-0.22
-1.59
-2.50
-2.93
-2.91
-2.59
-2.09
-1.56
-1.08
-0.69
-0.47
-0.55
-1.06
-2.09
-3.60
-5.41
-7.33
-9.19
-11.04
-13.10
-15.67
-19.01
-23.17
-27.92
-32.80
-37.18
-40.40
-41.88
-41.23
-38.28
-33.22
-26.52
-18.92
-11.26
-4.31
1.38
5.56
8.23
9.49
9.51
8.43
6.46
3.84
0.89
-2.11
-4.97
-7.63
-10.11
-12.42
-14.52
-16.24
-17.45
-18.14
-18.54
-19.06
-20.17
-22.20
-25.17
-28.87
-32.92
-37.04
-41.13
-45.29
-49.77
-54.81
-60.54
-66.94
-73.87
-81.06
-88.13
-94.63
-100.10
-104.14
-106.52
-107.23
-106.46
-104.55
-101.87
-98.74
-95.47
-92.31
-89.54
-87.39
-86.02
-85.36
-85.03
-84.39
-82.76
-79.66
-75.14
-69.77
-64.52
-60.37
-57.86
-56.59
-55.22
-51.86
-44.77
-33.08
-17.28
0.88
18.83
33.89
44.09
48.63
48.09
44.04
38.47
33.05
28.64
25.28
22.46
19.69
16.86
14.41
13.01
13.29
15.49
19.45
24.85
31.44
39.19
48.24
58.85
71.18
85.18
100.37
115.87
130.56
143.40
153.86
162.06
168.59
173.89
177.72
178.99
176.20
168.30
155.47
139.29
122.37
107.27
95.67
87.95
83.37
80.79
79.41
79.00
79.87
82.50
87.14
93.64
101.31
108.97
115.01
117.68
115.47
107.76
95.51
81.50
69.97
65.29
70.19
84.24
103.69
122.56
134.92
136.93
127.93
109.84
85.63
57.93
28.58
-0.77
-27.81
-49.45
-62.80
-66.90
-63.71
-57.67
-53.63
-54.44
-59.52
-65.39
-67.71
-63.75
-53.82
-41.18
-30.45
-25.66
-28.83
-39.68
-56.21
-75.69
-95.40
-112.96
-126.07
-132.39
-129.67
-116.29
-92.03
-58.72
-20.36
17.61
49.68
71.98
83.35
85.57
82.38
77.92
75.27
75.66
78.53
82.35
85.57
87.25
87.28
86.07
84.20
82.06
79.83
77.51
75.10
72.61
69.95
66.88
62.92
57.51
50.17
40.76
29.62
17.43
4.99
-7.15
-19.03
-31.23
-44.72
-60.38
-78.55
-98.82
-120.04
-140.69
-159.37
-175.26
-188.29
-198.92
-207.75
-215.14
-220.98
-224.82
-226.11
-224.53
-220.11
-213.20
-204.26
-193.74
-182.07
-169.75
-157.46
-146.00
-136.16
-128.35
-122.42
-117.46
-111.97
-104.23
-92.90
-77.57
-59.04
-39.23
-20.56
-5.27
5.20
10.44
10.78
6.97
0.03
-8.69
-17.20
-22.99
-23.57
-17.43
-4.78
12.44
31.36
49.44
65.48
79.87
93.90
108.69
124.43
140.21
154.51
165.97
173.81
177.93
178.57
175.97
170.30
161.67
150.47
137.44
123.65
110.22
97.95
87.08
77.37
68.21
59.09
49.77
40.42
31.42
23.16
15.84
9.44
3.76
-1.41
-6.25
-10.89
-15.46
-20.16
-25.27
-31.04
-37.49
-44.23
-50.40
-54.69
-55.73
-52.46
-44.65
-33.09
-19.43
-5.67
6.49
16.06
22.82
26.95
28.63
27.83
24.43
18.55
10.79
2.23
-5.95
-12.80
-17.83
-20.77
-21.13
-17.87
-9.57
5.00
26.08
52.51
81.88
111.29
138.26
161.29
179.73
193.29
201.36
202.89
196.93
183.50
164.29
142.59
122.29
106.37
95.55
87.92
79.62
66.57
46.17
18.39
-14.50
-49.06
-82.17
-111.99
-138.00
-160.40
-179.52
-195.51
-208.48
-218.77
-226.86
-232.99
-236.69
-236.65
-231.24
-219.32
-201.19
-178.93
-156.01
-136.27
-122.61
-116.11
-115.67
-118.64
-121.90
-123.04
-121.10
-116.61
-110.86
-104.95
-99.12
-92.60
-84.10
-72.53
-57.42
-39.15
-18.70
2.78
24.24
44.89
64.09
81.28
95.78
106.90
114.11
117.29
116.92
113.97
109.61
104.89
100.45
96.50
92.97
89.62
86.31
82.97
79.63
76.38
73.35
70.61
68.19
66.01
63.80
61.21
57.83
53.30
47.37
39.96
31.23
21.71
12.28
4.24
-1.04
-2.59
-0.32
4.75
10.62
15.07
16.46
14.35
9.50
3.41
-2.45
-7.28
-10.99
-13.98
-16.65
-19.07
-21.04
-22.28
-22.65
-22.29
-21.41
-20.17
-18.56
-16.44
-13.75
-10.58
-7.25
-4.21
-1.89
-0.64
-0.70
-2.18
-5.11
-9.49
-15.22
-22.11
-29.75
-37.48
-44.42
-49.64
-52.33
-52.14
-49.28
-44.51
-38.92
-33.54
-29.14
-26.04
-24.17
-23.27
-23.00
-23.06
-23.13
-22.80
-21.57
-18.92
-14.47
-8.10
0.09
9.85
20.93
33.13
46.21
59.76
73.17
85.74
96.96
106.68
115.02
122.09
127.54
130.41
129.52
124.08
114.36
101.84
88.70
76.95
67.67
60.86
55.79
51.68
48.02
44.65
41.35
37.56
32.40
25.06
15.28
3.65
-8.51
-19.48
-27.72
-32.20
-32.57
-29.14
-22.75
-14.53
-5.74
2.45
9.19
13.98
16.74
17.62
16.95
15.06
12.20
8.64
4.65
0.60
-3.07
-5.96
-7.78
-8.49
-8.26
-7.45
-6.44
-5.59
-5.09
-5.00
-5.24
-5.61
-5.88
-5.75
-4.94
-3.31
-0.98
1.57
3.63
4.48
3.74
1.44
-1.98
-6.03
-10.46
-15.35
-20.94
-27.29
-34.09
-40.69
-46.40
-50.86
-54.18
-56.88
-59.56
-62.62
-66.09
-69.72
-73.08
-75.76
-77.35
-77.49
-75.81
-71.99
-65.80
-57.26
-46.73
-34.93
-22.91
-11.84
-2.71
3.94
8.06
10.07
10.61
10.23
9.28
7.84
5.92
3.55
0.90
-1.73
-3.96
-5.40
-5.70
-4.55
-1.81
2.55
8.27
14.86
21.64
27.83
32.72
35.85
37.03
36.43
34.35
31.09
26.79
21.48
15.20
8.35
1.79
-3.25
-5.53
-4.25
0.58
8.19
17.39
27.02
36.28
44.78
52.33
58.65
63.22
65.46
64.93
61.64
56.01
48.78
40.68
32.30
24.04
16.23
9.23
3.45
-0.77
-3.31
-4.35
-4.34
-3.85
-3.42
-3.37
-3.78
-4.47
-5.16
-5.63
-5.87
-6.21
-7.19
-9.30
-12.81
-17.52
-22.88
-28.14
-32.70
-36.26
-38.77
-40.38
-41.17
-41.18
-40.39
-38.92
-37.03
-35.13
-33.67
-32.94
-33.03
-33.77
-34.88
-36.05
-37.04
-37.73
-38.11
-38.19
-38.10
-37.92
-37.79
-37.77
-37.92
-38.19
-38.55
-38.95
-39.39
-39.93
-40.69
-41.81
-43.44
-45.67
-48.49
-51.69
-54.79
-57.08
-57.72
-55.96
-51.46
-44.41
-35.53
-25.85
-16.38
-7.82
-0.41
5.94
11.42
16.11
19.89
22.53
23.91
24.15
23.65
22.92
22.39
22.24
22.44
22.80
23.19
23.57
24.01
24.61
25.43
26.47
27.74
29.26
31.09
33.25
35.60
37.79
39.28
39.65
38.76
36.93
34.81
33.09
32.17
31.94
31.93
31.50
30.26
28.12
25.22
21.80
17.94
13.65
8.94
3.92
-1.16
-5.96
-10.24
-13.87
-16.86
-19.24
-21.10
-22.49
-23.43
-23.98
-24.14
-23.90
-23.22
-22.06
-20.47
-18.56
-16.47
-14.28
-11.92
-9.14
-5.62
-1.15
4.25
10.31
16.57
22.63
28.31
33.64
38.79
43.85
48.61
52.53
54.92
55.15
52.88
48.23
41.75
34.29
26.82
20.21
15.03
11.56
9.67
8.96
8.84
8.75
8.23
7.16
5.79
4.86
5.46
8.69
15.19
24.67
35.78
46.43
54.40
58.02
56.57
50.21
39.62
25.59
8.85
-9.86
-29.51
-48.70
-65.80
-79.36
-88.46
-92.92
-93.25
-90.33
-85.20
-78.78
-71.87
-64.98
-58.45
-52.44
-46.98
-41.98
-37.33
-32.92
-28.66
-24.53
-20.57
-16.91
-13.74
-11.19
-9.25
-7.57
-5.51
-2.29
2.64
9.26
16.86
24.14
29.71
32.53
32.34
29.58
25.23
20.30
15.50
11.12
7.09
3.26
-0.44
-3.85
-6.68
-8.68
-9.79
-10.22
-10.39
-10.74
-11.52
-12.69
-13.97
-14.99
-15.46
-15.30
-14.65
-13.78
-13.01
-12.53
-12.44
-12.76
-13.39
-14.26
-15.32
-16.50
-17.71
-18.79
-19.50
-19.57
-18.77
-17.09
-14.76
-12.20
-9.87
-8.11
-7.00
-6.33
-5.80
-5.09
-4.09
-2.84
-1.45
-0.02
1.45
3.06
4.95
7.25
10.10
13.63
17.96
23.10
28.84
34.67
39.78
43.26
44.30
42.48
37.83
30.89
22.54
13.74
5.46
-1.59
-7.03
-10.72
-12.80
-13.50
-13.11
-11.94
-10.33
-8.64
-7.24
-6.41
-6.22
-6.51
-6.97
-7.27
-7.25
-6.97
-6.64
-6.49
-6.63
-6.97
-7.35
-7.65
-7.86
-8.08
-8.43
-8.92
-9.42
-9.71
-9.58
-8.94
-7.90
-6.69
-5.58
-4.78
-4.35
-4.23
-4.28
-4.35
-4.36
-4.28
-4.17
-4.09
-4.11
-4.29
-4.64
-5.16
-5.79
-6.40
-6.84
-6.98
-6.75
-6.19
-5.45
-4.73
-4.23
-4.04
-4.13
-4.38
-4.64
-4.74
-4.55
-4.05
-3.28
-2.39
-1.56
-0.96
-0.67
-0.62
-0.66
-0.60
-0.31
0.23
0.97
1.80
2.64
3.46
4.24
4.92
5.39
5.54
5.27
4.56
3.48
2.19
0.89
-0.21
-0.98
-1.38
-1.51
-1.61
-1.90
-2.53
-3.39
-4.17
-4.40
-3.58
-1.41
2.14
6.76
11.88
16.73
20.53
22.67
22.87
21.30
18.58
15.62
13.39
12.64
13.69
16.40
20.29
24.65
28.76
31.98
33.86
34.17
32.97
30.51
27.21
23.47
19.58
15.65
11.62
7.37
2.82
-1.95
-6.66
-10.91
-14.13
-15.58
-14.36
-9.63
-0.91
11.54
26.50
41.84
55.06
63.93
67.15
64.57
57.00
45.69
31.88
16.59
0.77
-14.50
-27.88
-38.05
-44.05
-45.79
-44.06
-40.35
-36.29
-33.14
-31.42
-31.05
-31.52
-32.30
-33.00
-33.47
-33.67
-33.60
-33.25
-32.60
-31.67
-30.49
-29.14
-27.66
-26.11
-24.55
-23.07
-21.75
-20.64
-19.69
-18.74
-17.64
-16.32
-14.83
-13.39
-12.28
-11.69
-11.69
-12.19
-12.94
-13.58
-13.74
-13.16
-11.71
-9.54
-7.03
-4.70
-3.09
-2.58
-3.29
-4.97
-7.00
-8.42
-8.19
-5.50
-0.06
7.69
16.66
25.49
32.94
38.22
41.11
41.74
40.41
37.26
32.38
25.88
18.00
9.24
0.27
-8.20
-15.49
-21.04
-24.45
-25.56
-24.56
-21.96
-18.50
-14.99
-12.08
-10.08
-8.97
-8.48
-8.24
-7.95
-7.43
-6.59
-5.44
-4.00
-2.37
-0.66
1.00
2.49
3.76
4.78
5.61
6.36
7.11
7.91
8.77
9.62
10.38
10.95
11.31
11.42
11.31
11.00
10.48
9.79
8.96
8.05
7.13
6.27
5.51
4.88
4.42
4.15
4.03
3.95
3.73
3.15
1.98
0.13
-2.39
-5.40
-8.59
-11.60
-14.06
-15.65
-16.19
-15.63
-14.08
-11.74
-8.92
-5.91
-2.99
-0.35
1.93
3.82
5.33
6.45
7.13
7.32
7.01
6.26
5.24
4.14
3.13
2.33
1.74
1.35
1.13
1.03
1.08
1.30
1.77
2.52
3.50
4.59
5.59
6.36
6.82
7.07
7.24
7.49
7.83
8.13
8.25
8.04
7.52
6.83
6.19
5.76
5.57
5.56
5.59
5.56
5.49
5.45
5.58
5.97
6.61
7.41
8.23
8.89
9.25
9.23
8.80
8.01
6.93
5.69
4.44
3.30
2.39
1.74
1.35
1.14
1.02
0.88
0.64
0.24
-0.31
-0.92
-1.44
-1.66
-1.41
-0.59
0.72
2.27
3.68
4.56
4.62
3.81
2.28
0.36
-1.61
-3.35
-4.74
-5.74
-6.40
-6.77
-6.91
-6.84
-6.64
-6.36
-6.07
-5.84
-5.71
-5.71
-5.85
-6.09
-6.33
-6.38
-6.00
-5.00
-3.32
-1.06
1.58
4.41
7.31
10.29
13.35
16.42
19.27
21.55
22.90
23.09
22.08
19.99
17.05
13.54
9.75
5.96
2.48
-0.49
-2.87
-4.73
-6.23
-7.49
-8.53
-9.23
-9.42
-9.07
-8.37
-7.70
-7.46
-7.85
-8.77
-9.86
-10.57
-10.53
-9.62
-8.08
-6.43
-5.28
-5.19
-6.50
-9.23
-12.94
-16.67
-19.01
-18.40
-13.55
-4.07
9.26
24.56
39.36
51.46
59.57
63.48
63.77
61.14
55.95
48.19
37.89
25.62
12.68
0.81
-8.45
-14.39
-17.38
-18.49
-18.95
-19.53
-20.35
-21.04
-21.11
-20.34
-18.88
-17.17
-15.74
-15.05
-15.38
-16.77
-19.08
-21.95
-24.87
-27.22
-28.45
-28.16
-26.24
-22.93
-18.73
-14.35
-10.45
-7.55
-5.88
-5.25
-5.22
-5.22
-4.76
-3.65
-1.96
0.08
2.26
4.48
6.76
9.06
11.17
12.67
13.14
12.34
10.39
7.75
4.98
2.56
0.71
-0.61
-1.50
-2.06
-2.28
-2.08
-1.44
-0.46
0.59
1.43
1.84
1.79
1.44
1.02
0.74
0.69
0.79
0.90
0.88
0.67
0.30
-0.13
-0.55
-0.89
-1.11
-1.17
-0.99
-0.55
0.11
0.91
1.67
2.22
2.44
2.31
1.88
1.28
0.70
0.30
0.19
0.37
0.77
1.18
1.46
1.49
1.30
1.05
0.93
1.09
1.52
2.05
2.41
2.40
1.96
1.25
0.54
0.06
-0.14
-0.15
-0.16
-0.25
-0.39
-0.44
-0.31
-0.04
0.23
0.33
0.20
-0.09
-0.37
-0.55
-0.63
-0.75
-1.03
-1.53
-2.14
-2.71
-3.05
-3.09
-2.86
-2.47
-2.10
-1.91
-1.99
-2.36
-2.94
-3.58
-4.13
-4.53
-4.81
-5.03
-5.25
-5.41
-5.41
-5.06
-4.25
-2.96
-1.26
0.65
2.50
3.96
4.76
4.70
3.83
2.41
0.84
-0.48
-1.32
-1.70
-1.86
-2.22
-3.20
-5.17
-8.32
-12.52
-17.30
-21.86
-25.24
-26.65
-25.75
-22.78
-18.40
-13.42
-8.31
-3.06
2.83
10.07
19.18
30.32
43.22
57.28
71.69
85.43
97.24
105.68
109.39
107.47
99.79
87.09
70.77
52.49
33.74
15.68
-0.89
-15.33
-27.08
-35.71
-41.02
-43.21
-42.82
-40.63
-37.37
-33.68
-30.02
-26.74
-24.16
-22.50
-21.84
-21.98
-22.51
-22.86
-22.59
-21.56
-20.01
-18.41
-17.31
-17.01
-17.54
-18.64
-19.91
-20.98
-21.58
-21.64
-21.15
-20.17
-18.73
-16.83
-14.47
-11.73
-8.81
-5.98
-3.54
-1.71
-0.54
0.03
0.15
-0.03
-0.37
-0.81
-1.27
-1.69
-2.04
-2.30
-2.46
-2.53
-2.45
-2.17
-1.64
-0.88
0.01
0.86
1.50
1.81
1.75
1.36
0.70
-0.14
-1.06
-2.00
-2.89
-3.71
-4.46
-5.15
-5.82
-6.46
-7.03
-7.44
-7.52
-7.10
-6.02
-4.22
-1.84
0.78
3.19
4.90
5.58
5.15
3.78
1.85
-0.16
-1.76
-2.56
-2.31
-0.95
1.38
4.34
7.47
10.28
12.36
13.44
13.44
12.52
10.99
9.28
7.78
6.72
6.15
5.99
6.13
6.51
7.18
8.14
9.32
10.44
11.15
11.12
10.25
8.70
6.82
5.02
3.57
2.51
1.75
1.03
0.14
-1.04
-2.52
-4.16
-5.76
-7.10
-8.04
-8.55
-8.70
-8.65
-8.51
-8.35
-8.13
-7.75
-7.14
-6.30
-5.38
-4.56
-3.98
-3.65
-3.46
-3.29
-3.06
-2.83
-2.73
-2.87
-3.24
-3.67
-3.98
-4.03
-3.81
-3.49
-3.25
-3.19
-3.29
-3.42
-3.44
-3.25
-2.80
-2.12
-1.24
-0.24
0.81
1.80
2.61
3.14
3.32
3.14
2.67
2.09
1.55
1.21
1.13
1.28
1.58
1.96
2.36
2.73
3.07
3.34
3.52
3.61
3.66
3.74
3.91
4.14
4.31
4.32
4.07
3.62
3.06
2.54
2.10
1.74
1.35
0.86
0.32
-0.13
-0.30
-0.08
0.48
1.16
1.72
2.00
1.99
1.79
1.53
1.27
0.92
0.38
-0.47
-1.57
-2.76
-3.90
-4.91
-5.91
-7.13
-8.73
-10.59
-12.21
-12.83
-11.70
-8.51
-3.53
2.40
8.23
13.12
16.68
19.02
20.56
21.72
22.77
23.80
24.69
25.26
25.19
24.09
21.51
17.13
11.04
3.85
-3.36
-9.30
-12.97
-13.99
-12.73
-10.16
-7.43
-5.45
-4.64
-4.97
-6.13
-7.78
-9.69
-11.74
-13.76
-15.49
-16.66
-17.09
-16.82
-16.15
-15.47
-15.09
-15.03
-15.00
-14.55
-13.27
-11.07
-8.22
-5.31
-2.92
-1.40
-0.74
-0.59
-0.57
-0.37
0.01
0.40
0.65
0.73
0.82
1.16
1.96
3.22
4.72
6.12
7.10
7.54
7.48
7.13
6.73
6.41
6.15
5.80
5.21
4.38
3.42
2.57
2.03
1.85
1.94
2.12
2.25
2.26
2.17
2.05
1.87
1.63
1.27
0.80
0.28
-0.23
-0.69
-1.18
-1.78
-2.58
-3.54
-4.57
-5.49
-6.16
-6.47
-6.39
-5.90
-5.05
-3.88
-2.49
-1.03
0.33
1.37
1.97
2.05
1.63
0.83
-0.18
-1.20
-2.03
-2.52
-2.60
-2.31
-1.78
-1.16
-0.54
0.10
0.86
1.83
3.07
4.46
5.83
6.93
7.63
7.88
7.76
7.38
6.82
6.12
5.33
4.48
3.67
2.95
2.31
1.68
0.93
0.04
-0.89
-1.56
-1.68
-1.06
0.27
2.05
3.89
5.45
6.52
7.02
7.04
6.67
6.00
5.10
4.03
2.82
1.56
0.32
-0.78
-1.65
-2.21
-2.45
-2.47
-2.40
-2.38
-2.50
-2.73
-3.01
-3.24
-3.41
-3.55
-3.76
-4.09
-4.54
-5.01
-5.34
-5.42
-5.23
-4.91
-4.68
-4.71
-5.08
-5.65
-6.14
-6.23
-5.72
-4.54
-2.84
-0.85
1.16
2.97
4.40
5.36
5.84
5.86
5.49
4.74
3.67
2.35
0.94
-0.37
-1.39
-1.99
-2.17
-2.03
-1.71
-1.35
-0.99
-0.64
-0.27
0.13
0.54
0.91
1.16
1.21
0.98
0.46
-0.31
-1.23
-2.19
-3.13
-4.02
-4.90
-5.82
-6.76
-7.57
-8.06
-8.03
-7.35
-6.08
-4.36
-2.43
-0.51
1.23
2.71
3.88
4.70
5.16
5.23
4.92
4.25
3.31
2.21
1.07
-0.00
-0.90
-1.57
-1.99
-2.22
-2.31
-2.30
-2.22
-2.07
-1.89
-1.83
-2.03
-2.62
-3.62
-4.90
-6.22
-7.39
-8.35
-9.14
-9.91
-10.80
-11.89
-13.24
-14.87
-16.73
-18.60
-20.13
-20.87
-20.50
-18.99
-16.74
-14.43
-12.80
-12.28
-12.91
-14.27
-15.80
-16.98
-17.54
-17.46
-16.84
-15.85
-14.55
-12.90
-10.76
-7.93
-4.18
0.70
6.77
13.85
21.52
29.08
35.75
40.82
43.85
44.76
43.82
41.53
38.43
34.93
31.18
27.13
22.65
17.75
12.70
8.07
4.44
2.28
1.75
2.70
4.77
7.52
10.54
13.50
16.09
17.96
18.82
18.43
16.75
13.95
10.44
6.78
3.55
1.20
-0.11
-0.54
-0.48
-0.37
-0.52
-1.02
-1.72
-2.39
-2.85
-3.07
-3.13
-3.16
-3.26
-3.47
-3.77
-4.10
-4.43
-4.74
-5.05
-5.35
-5.64
-5.88
-6.00
-5.97
-5.83
-5.65
-5.49
-5.34
-5.09
-4.59
-3.73
-2.46
-0.88
0.85
2.50
3.89
4.88
5.38
5.37
4.91
4.06
2.95
1.68
0.37
-0.83
-1.81
-2.44
-2.65
-2.50
-2.12
-1.73
-1.51
-1.61
-2.06
-2.82
-3.79
-4.81
-5.72
-6.36
-6.64
-6.63
-6.51
-6.54
-6.95
-7.83
-9.07
-10.48
-11.83
-12.93
-13.65
-13.92
-13.68
-12.91
-11.69
-10.20
-8.68
-7.35
-6.35
-5.63
-4.99
-4.22
-3.18
-1.88
-0.51
0.64
1.32
1.34
0.69
-0.43
-1.66
-2.52
-2.53
-1.29
1.39
5.37
10.21
15.20
19.61
22.86
24.60
24.83
23.74
21.67
18.94
15.86
12.68
9.67
7.05
5.00
3.60
2.73
2.19
1.71
1.12
0.36
-0.50
-1.34
-2.13
-2.96
-4.06
-5.57
-7.47
-9.46
-11.05
-11.81
-11.57
-10.55
-9.26
-8.20
-7.70
-7.70
-7.96
-8.22
-8.31
-8.26
-8.10
-7.75
-6.93
-5.32
-2.74
0.57
4.06
6.97
8.67
8.91
7.86
6.04
4.03
2.29
0.96
-0.05
-0.89
-1.68
-2.38
-2.87
-3.03
-2.82
-2.29
-1.47
-0.38
1.00
2.63
4.37
5.96
7.09
7.53
7.23
6.32
5.08
3.84
2.85
2.22
1.87
1.60
1.17
0.43
-0.63
-1.87
-3.07
-4.07
-4.89
-5.69
-6.67
-7.94
-9.40
-10.77
-11.72
-11.97
-11.47
-10.32
-8.75
-6.99
-5.19
-3.41
-1.66
0.01
1.46
2.54
3.11
3.10
2.55
1.56
0.26
-1.15
-2.44
-3.41
-3.89
-3.80
-3.20
-2.22
-0.98
0.50
2.29
4.48
7.09
9.94
12.69
14.89
16.23
16.64
16.39
15.95
15.76
16.04
16.62
17.07
16.93
16.00
14.47
12.83
11.67
11.32
11.66
12.22
12.30
11.36
9.20
5.96
2.03
-2.19
-6.42
-10.60
-14.69
-18.62
-22.15
-24.91
-26.59
-27.11
-26.71
-25.83
-24.96
-24.36
-23.94
-23.42
-22.43
-20.86
-18.89
-16.89
-15.28
-14.27
-13.83
-13.75
-13.82
-13.96
-14.22
-14.72
-15.49
-16.45
-17.45
-18.40
-19.33
-20.43
-21.90
-23.88
-26.34
-29.09
-31.92
-34.60
-37.04
-39.30
-41.54
-43.93
-46.53
-49.10
-51.03
-51.40
-49.17
-43.45
-33.70
-19.88
-2.44
17.69
39.23
60.69
80.60
97.71
111.16
120.54
125.78
127.00
124.38
118.19
108.81
96.87
83.20
68.81
54.65
41.54
30.04
20.43
12.74
6.77
2.16
-1.47
-4.40
-6.77
-8.61
-9.93
-10.86
-11.65
-12.62
-13.98
-15.72
-17.54
-18.97
-19.43
-18.48
-15.91
-11.86
-6.77
-1.30
3.80
7.84
10.39
11.28
10.64
8.81
6.28
3.51
0.90
-1.27
-2.89
-3.94
-4.48
-4.68
-4.65
-4.57
-4.58
-4.81
-5.33
-6.12
-7.09
-8.12
-9.04
-9.75
-10.17
-10.30
-10.19
-9.91
-9.58
-9.32
-9.25
-9.44
-9.90
-10.50
-10.95
-10.92
-10.08
-8.28
-5.61
-2.38
0.92
3.86
6.10
7.56
8.27
8.34
7.94
7.27
6.67
6.61
7.59
9.93
13.65
18.32
23.21
27.46
30.41
31.71
31.39
29.74
27.13
23.93
20.44
16.93
13.63
10.76
8.47
6.78
5.68
5.18
5.34
6.29
8.14
10.82
14.05
17.33
20.14
22.02
22.69
22.06
20.13
17.00
12.85
7.98
2.74
-2.50
-7.46
-11.97
-15.94
-19.30
-21.90
-23.64
-24.49
-24.63
-24.40
-24.15
-24.10
-24.20
-24.22
-23.90
-23.12
-21.95
-20.63
-19.40
-18.41
-17.70
-17.18
-16.78
-16.44
-16.17
-15.97
-15.83
-15.67
-15.42
-14.98
-14.32
-13.48
-12.53
-11.54
-10.53
-9.47
-8.28
-6.93
-5.49
-4.11
-2.99
-2.29
-2.07
-2.25
-2.69
-3.23
-3.78
-4.33
-4.89
-5.39
-5.71
-5.66
-5.13
-4.19
-3.08
-2.15
-1.68
-1.73
-2.12
-2.52
-2.64
-2.36
-1.76
-1.04
-0.39
0.10
0.40
0.51
0.41
0.07
-0.49
-1.15
-1.68
-1.87
-1.57
-0.79
0.35
1.62
2.80
3.69
4.18
4.25
3.91
3.22
2.26
1.07
-0.24
-1.55
-2.67
-3.41
-3.67
-3.50
-3.07
-2.62
-2.31
-2.17
-2.14
-2.11
-2.04
-1.94
-1.85
-1.76
-1.62
-1.40
-1.08
-0.73
-0.43
-0.28
-0.34
-0.58
-0.96
-1.40
-1.78
-2.03
-2.09
-1.97
-1.69
-1.22
-0.55
0.36
1.40
2.42
3.21
3.63
3.71
3.57
3.34
3.03
2.49
1.58
0.30
-1.12
-2.30
-2.94
-2.96
-2.55
-2.04
-1.71
-1.66
-1.81
-2.03
-2.17
-2.14
-1.91
-1.48
-0.85
-0.07
0.77
1.53
2.07
2.25
1.99
1.30
0.26
-0.98
-2.16
-2.99
-3.23
-2.80
-1.76
-0.36
1.10
2.41
3.46
4.27
4.91
5.36
5.57
5.47
5.02
4.31
3.52
2.83
2.35
2.07
1.88
1.70
1.50
1.32
1.23
1.26
1.37
1.46
1.44
1.26
0.93
0.41
-0.32
-1.27
-2.39
-3.54
-4.53
-5.16
-5.35
-5.15
-4.81
-4.59
-4.69
-5.13
-5.72
-6.13
-6.00
-5.12
-3.48
-1.29
1.10
3.37
5.27
6.67
7.49
7.69
7.21
6.13
4.61
2.96
1.54
0.59
0.18
0.19
0.39
0.58
0.68
0.68
0.63
0.55
0.48
0.44
0.45
0.52
0.57
0.52
0.30
-0.07
-0.47
-0.72
-0.72
-0.53
-0.36
-0.46
-1.01
-1.95
-3.02
-3.83
-4.00
-3.35
-1.89
0.14
2.39
4.51
6.21
7.32
7.79
7.63
6.90
5.70
4.20
2.63
1.25
0.25
-0.26
-0.39
-0.34
-0.31
-0.46
-0.75
-1.06
-1.22
-1.13
-0.78
-0.28
0.20
0.49
0.48
0.17
-0.35
-0.90
-1.27
-1.38
-1.26
-1.08
-1.05
-1.33
-1.92
-2.69
-3.41
-3.87
-3.91
-3.48
-2.63
-1.50
-0.23
1.05
2.27
3.38
4.37
5.15
5.64
5.75
5.50
4.98
4.30
3.56
2.75
1.85
0.85
-0.17
-1.08
-1.74
-2.04
-2.00
-1.69
-1.21
-0.65
-0.04
0.53
0.97
1.12
0.89
0.20
-0.87
-2.14
-3.33
-4.19
-4.57
-4.53
-4.27
-4.08
-4.17
-4.48
-4.79
-4.76
-4.16
-2.93
-1.23
0.63
2.34
3.70
4.64
5.19
5.43
5.39
5.14
4.64
3.88
2.90
1.77
0.65
-0.32
-1.00
-1.37
-1.43
-1.24
-0.88
-0.40
0.07
0.40
0.44
0.07
-0.67
-1.59
-2.43
-2.92
-2.98
-2.69
-2.32
-2.15
-2.37
-3.04
-4.02
-5.06
-5.84
-6.02
-5.29
-3.57
-0.99
1.99
4.77
6.79
7.71
7.57
6.70
5.60
4.68
4.16
4.02
4.08
4.17
4.16
4.04
3.86
3.65
3.41
3.05
2.50
1.69
0.68
-0.40
-1.36
-2.01
-2.27
-2.19
-1.99
-1.96
-2.36
-3.20
-4.29
-5.24
-5.73
-5.66
-5.24
-4.86
-4.86
-5.32
-5.98
-6.44
-6.36
-5.64
-4.43
-3.05
-1.74
-0.60
0.42
1.39
2.32
3.06
3.39
3.09
2.13
0.75
-0.62
-1.48
-1.47
-0.55
0.92
2.31
2.97
2.40
0.41
-2.87
-7.04
-11.46
-15.40
-18.15
-19.13
-18.12
-15.32
-11.30
-6.83
-2.61
0.94
3.66
5.65
7.05
8.00
8.59
8.89
9.03
9.13
9.33
9.74
10.39
11.23
12.12
12.83
13.10
12.77
11.84
10.48
9.01
7.68
6.54
5.45
4.17
2.55
0.68
-1.18
-2.62
-3.38
-3.39
-2.87
-2.13
-1.42
-0.84
-0.38
0.07
0.53
0.92
1.08
0.88
0.28
-0.58
-1.48
-2.21
-2.66
-2.85
-2.92
-3.03
-3.25
-3.52
-3.71
-3.62
-3.13
-2.19
-0.87
0.67
2.21
3.60
4.71
5.52
6.03
6.25
6.14
5.63
4.67
3.30
1.72
0.24
-0.87
-1.51
-1.81
-2.03
-2.44
-3.14
-4.02
-4.83
-5.40
-5.69
-5.85
-6.10
-6.55
-7.16
-7.72
-7.96
-7.69
-6.89
-5.67
-4.25
-2.88
-1.78
-1.14
-1.01
-1.33
-1.88
-2.29
-2.22
-1.43
0.07
1.98
3.88
5.39
6.32
6.74
6.83
6.75
6.48
5.80
4.56
2.74
0.64
-1.32
-2.73
-3.46
-3.65
-3.60
-3.50
-3.38
-3.04
-2.24
-0.92
0.71
2.21
3.14
3.22
2.50
1.28
-0.01
-0.99
-1.49
-1.57
-1.51
-1.62
-2.17
-3.21
-4.54
-5.77
-6.41
-6.10
-4.66
-2.27
0.66
3.62
6.16
8.04
9.18
9.66
9.57
9.00
7.99
6.60
4.97
3.31
1.83
0.67
-0.13
-0.63
-0.92
-1.08
-1.13
-1.06
-0.85
-0.53
-0.18
0.10
0.23
0.14
-0.19
-0.69
-1.30
-1.90
-2.38
-2.69
-2.82
-2.83
-2.89
-3.12
-3.62
-4.36
-5.18
-5.80
-5.94
-5.42
-4.20
-2.40
-0.28
1.88
3.78
5.23
6.11
6.37
6.08
5.34
4.32
3.19
2.10
1.15
0.40
-0.13
-0.48
-0.67
-0.76
-0.83
-0.90
-1.03
-1.22
-1.43
-1.61
-1.71
-1.70
-1.57
-1.37
-1.14
-0.95
-0.88
-1.02
-1.44
-2.13
-3.05
-4.05
-4.91
-5.40
-5.36
-4.66
-3.32
-1.44
0.81
3.18
5.42
7.27
8.57
9.24
9.31
8.87
8.06
6.98
5.70
4.29
2.78
1.28
-0.10
-1.21
-1.98
-2.45
-2.73
-3.00
-3.37
-3.85
-4.35
-4.75
-4.95
-5.00
-5.00
-5.10
-5.39
-5.88
-6.51
-7.19
-7.81
-8.27
-8.52
-8.58
-8.57
-8.65
-8.96
-9.47
-10.03
-10.30
-10.00
-8.99
-7.40
-5.58
-3.94
-2.86
-2.56
-3.19
-4.89
-7.82
-11.98
-17.10
-22.57
-27.54
-31.24
-33.31
-33.91
-33.63
-33.20
-33.16
-33.68
-34.64
-35.78
-36.85
-37.66
-38.01
-37.66
-36.34
-33.84
-30.18
-25.55
-20.38
-15.10
-10.15
-5.70
-1.73
2.04
5.97
10.33
15.15
20.09
24.55
27.86
29.46
29.17
27.12
23.70
19.42
14.72
9.89
4.98
-0.22
-6.15
-13.22
-21.62
-31.09
-40.85
-49.88
-57.32
-62.93
-67.17
-71.10
-75.89
-82.40
-90.97
-101.31
-112.57
-123.19
-130.86
-132.72
-125.93
-108.55
-80.37
-43.31
-1.02
42.02
81.63
114.70
139.47
155.36
162.81
163.17
158.69
152.28
146.85
144.54
145.95
149.88
153.78
154.71
150.43
140.22
125.06
107.13
88.85
72.06
57.43
44.54
32.25
19.43
5.49
-9.40
-24.42
-38.46
-50.57
-60.19
-67.13
-71.49
-73.42
-73.17
-71.18
-68.30
-65.88
-65.49
-68.54
-75.64
-86.32
-99.23
-112.73
-125.63
-137.56
-148.79
-159.54
-169.31
-176.65
-179.45
-175.65
-163.91
-143.94
-116.56
-83.44
-46.83
-9.33
26.43
58.07
83.87
103.01
115.64
122.61
125.03
123.99
120.35
114.85
108.12
100.78
93.33
86.08
79.04
71.99
64.57
56.47
47.65
38.37
29.16
20.57
12.94
6.23
0.04
-6.27
-13.32
-21.57
-31.21
-42.12
-53.74
-65.06
-74.59
-80.56
-81.23
-75.40
-62.80
-44.29
-21.67
2.75
26.64
48.10
65.88
79.31
88.22
92.70
93.03
89.67
83.29
74.77
65.21
55.69
47.10
40.00
34.53
30.48
27.46
24.99
22.66
20.12
17.18
13.69
9.59
4.90
-0.34
-5.98
-11.95
-18.24
-24.97
-32.35
-40.45
-49.00
-57.18
-63.74
-67.19
-66.33
-60.59
-50.24
-36.33
-20.35
-3.90
11.64
25.23
36.22
44.24
49.16
51.04
50.17
47.03
42.26
36.63
30.89
25.67
21.37
18.10
15.75
14.08
12.79
11.66
10.54
9.38
8.19
6.99
5.75
4.32
2.43
-0.30
-4.27
-9.77
-16.77
-24.73
-32.46
-38.29
-40.36
-37.24
-28.43
-14.66
2.31
20.20
36.88
50.86
61.49
68.75
72.88
74.14
72.65
68.54
62.14
54.09
45.35
37.03
30.19
25.57
23.47
23.71
25.73
28.64
31.43
33.05
32.72
30.21
26.16
22.05
19.92
21.63
28.04
38.49
50.94
62.69
71.44
76.17
77.35
76.57
75.77
76.39
79.05
83.45
88.72
93.73
97.39
98.75
97.08
91.94
83.24
71.40
57.34
42.39
28.03
15.54
5.67
-1.63
-7.15
-12.24
-18.34
-26.45
-36.84
-48.99
-61.77
-73.83
-84.11
-92.08
-97.80
-101.80
-104.80
-107.50
-110.46
-113.96
-117.87
-121.50
-123.59
-122.60
-117.21
-106.86
-92.10
-74.45
-55.84
-38.01
-22.05
-8.39
2.93
11.88
18.34
22.20
23.63
23.17
21.69
20.01
18.74
18.07
17.92
18.10
18.45
19.03
20.04
21.72
24.32
27.93
32.46
37.71
43.34
48.98
54.20
58.50
61.30
61.90
59.76
54.71
47.31
38.92
31.43
26.77
26.09
29.36
35.30
41.80
46.66
48.31
46.13
40.46
32.19
22.38
11.94
1.43
-8.83
-18.77
-28.36
-37.58
-46.34
-54.45
-61.61
-67.50
-71.86
-74.55
-75.64
-75.35
-74.01
-72.01
-69.70
-67.34
-65.17
-63.35
-62.12
-61.83
-62.88
-65.52
-69.57
-74.21
-77.94
-78.94
-75.59
-67.03
-53.46
-36.07
-16.67
2.84
20.91
36.46
48.89
57.88
63.31
65.22
63.91
59.93
54.06
47.15
40.00
33.23
27.21
22.07
17.78
14.17
11.08
8.33
5.80
3.41
1.09
-1.23
-3.61
-6.14
-8.86
-11.86
-15.32
-19.53
-24.87
-31.59
-39.52
-47.81
-54.94
-59.04
-58.47
-52.44
-41.32
-26.53
-10.07
6.07
20.41
32.15
41.04
47.16
50.72
51.97
51.26
49.02
45.79
42.10
38.44
35.15
32.48
30.55
29.37
28.82
28.59
28.28
27.38
25.53
22.52
18.41
13.44
7.92
2.09
-3.89
-9.97
-16.17
-22.54
-29.20
-36.18
-43.36
-50.17
-55.55
-58.04
-56.20
-49.24
-37.50
-22.47
-6.46
8.21
19.78
27.47
31.32
31.81
29.47
24.74
18.04
9.95
1.32
-6.89
-13.79
-18.82
-21.89
-23.34
-23.74
-23.72
-23.71
-23.87
-24.12
-24.27
-24.28
-24.28
-24.68
-25.89
-28.29
-32.08
-37.25
-43.62
-50.79
-58.04
-64.25
-68.03
-67.94
-62.96
-52.90
-38.51
-21.33
-3.24
14.03
29.24
41.64
50.91
56.90
59.59
59.05
55.61
49.91
42.84
35.38
28.33
22.18
17.01
12.67
8.95
5.67
2.77
0.22
-2.03
-4.13
-6.27
-8.64
-11.36
-14.49
-18.10
-22.32
-27.41
-33.63
-41.10
-49.48
-57.84
-64.66
-68.13
-66.70
-59.59
-47.16
-30.81
-12.59
5.45
21.65
35.03
45.20
52.08
55.76
56.42
54.35
50.02
44.13
37.48
30.87
24.93
19.98
16.11
13.08
10.58
8.25
5.84
3.27
0.57
-2.16
-4.83
-7.44
-10.07
-12.92
-16.23
-20.35
-25.59
-32.18
-40.00
-48.46
-56.40
-62.26
-64.39
-61.60
-53.53
-40.84
-25.00
-7.92
8.59
23.22
35.23
44.37
50.65
54.14
54.97
53.37
49.77
44.80
39.19
33.62
28.58
24.32
20.84
17.98
15.54
13.29
11.05
8.67
6.05
3.18
0.08
-3.14
-6.42
-9.76
-13.33
-17.45
-22.54
-28.97
-36.77
-45.43
-53.85
-60.44
-63.56
-61.98
-55.31
-44.14
-29.82
-14.10
1.44
15.71
28.19
38.78
47.59
54.69
60.09
63.80
65.95
66.82
66.79
66.22
65.33
64.24
62.95
61.48
59.97
58.56
57.35
56.24
54.89
52.85
49.76
45.57
40.55
35.26
30.26
25.88
22.12
18.70
15.28
11.57
7.49
3.19
-1.06
-4.87
-7.84
-9.62
-10.05
-9.20
-7.46
-5.40
-3.63
-2.65
-2.69
-3.71
-5.46
-7.59
-9.74
-11.60
-12.97
-13.79
-14.17
-14.37
-14.70
-15.54
-17.19
-19.83
-23.53
-28.20
-33.61
-39.43
-45.26
-50.64
-55.14
-58.48
-60.57
-61.63
-62.14
-62.74
-64.08
-66.57
-70.30
-74.91
-79.62
-83.29
-84.62
-82.39
-75.78
-64.62
-49.52
-31.83
-13.31
4.28
19.53
31.55
40.00
44.94
46.70
45.75
42.70
38.24
33.11
27.99
23.40
19.68
16.91
15.04
13.86
13.06
12.29
11.27
9.84
7.97
5.81
3.50
1.11
-1.42
-4.25
-7.59
-11.59
-16.34
-21.87
-28.11
-34.83
-41.47
-47.13
-50.60
-50.64
-46.40
-37.77
-25.47
-10.98
3.95
17.69
29.11
37.67
43.30
46.17
46.52
44.71
41.19
36.61
31.73
27.23
23.56
20.88
19.06
17.83
16.93
16.10
15.18
14.00
12.46
10.53
8.27
5.75
3.06
0.20
-2.91
-6.42
-10.51
-15.35
-21.07
-27.62
-34.61
-41.22
-46.19
-48.12
-45.84
-38.92
-27.82
-13.85
1.21
15.60
27.98
37.58
44.18
47.87
48.92
47.67
44.51
39.97
34.70
29.35
24.43
20.27
16.94
14.33
12.29
10.63
9.19
7.79
6.25
4.39
2.18
-0.34
-3.05
-5.80
-8.58
-11.48
-14.72
-18.59
-23.37
-29.22
-36.03
-43.28
-49.93
-54.63
-55.99
-53.03
-45.51
-34.09
-20.10
-5.15
9.27
22.06
32.57
40.49
45.75
48.39
48.58
46.61
42.93
38.10
32.81
27.64
23.02
19.14
16.00
13.46
11.34
9.52
7.89
6.33
4.67
2.70
0.28
-2.61
-5.82
-9.13
-12.37
-15.54
-18.86
-22.69
-27.44
-33.31
-40.16
-47.29
-53.52
-57.35
-57.32
-52.56
-43.05
-29.74
-14.24
1.60
16.21
28.56
38.16
44.88
48.75
49.92
48.64
45.33
40.67
35.39
30.23
25.68
21.95
19.02
16.75
14.99
13.64
12.63
11.85
11.14
10.25
8.93
7.04
4.57
1.68
-1.43
-4.58
-7.78
-11.23
-15.27
-20.27
-26.44
-33.63
-41.16
-47.84
-52.13
-52.54
-48.07
-38.63
-25.16
-9.35
6.82
21.61
33.90
43.22
49.59
53.27
54.48
53.42
50.29
45.44
39.34
32.57
25.64
18.99
12.94
7.72
3.49
0.31
-1.89
-3.33
-4.41
-5.53
-6.99
-8.92
-11.22
-13.75
-16.36
-19.03
-21.89
-25.18
-29.14
-34.02
-39.90
-46.67
-53.84
-60.51
-65.47
-67.44
-65.41
-59.07
-48.88
-36.00
-21.93
-8.10
4.34
14.68
22.53
27.74
30.34
30.51
28.63
25.28
21.11
16.78
12.80
9.48
6.95
5.24
4.34
4.25
4.90
6.12
7.54
8.70
9.08
8.36
6.46
3.62
0.23
-3.36
-6.99
-10.76
-14.95
-19.85
-25.69
-32.44
-39.75
-46.88
-52.72
-55.96
-55.40
-50.32
-40.80
-27.74
-12.65
2.79
17.10
29.27
38.77
45.38
49.07
49.97
48.38
44.84
40.12
35.04
30.29
26.30
23.17
20.77
18.92
17.45
16.31
15.41
14.64
13.73
12.37
10.27
7.32
3.64
-0.46
-4.59
-8.47
-12.07
-15.60
-19.49
-24.28
-30.37
-37.82
-46.14
-54.27
-60.67
-63.75
-62.28
-55.84
-44.91
-30.79
-15.14
0.41
14.64
26.81
36.55
43.72
48.28
50.26
49.87
47.54
43.92
39.74
35.64
32.05
29.10
26.71
24.72
22.97
21.45
20.16
19.07
18.01
16.67
14.72
11.91
8.19
3.74
-1.12
-6.07
-10.93
-15.73
-20.71
-26.16
-32.34
-39.21
-46.33
-52.79
-57.33
-58.65
-55.76
-48.32
-36.87
-22.70
-7.46
7.28
20.34
31.15
39.55
45.58
49.23
50.45
49.26
45.91
41.07
35.63
30.46
26.19
22.96
20.60
18.83
17.46
16.50
16.02
15.94
15.94
15.52
14.21
11.82
8.51
4.74
0.94
-2.67
-6.20
-10.02
-14.57
-20.12
-26.73
-34.08
-41.57
-48.26
-53.02
-54.66
-52.25
-45.44
-34.69
-21.15
-6.40
8.01
20.93
31.72
40.13
46.11
49.63
50.67
49.44
46.38
42.24
37.80
33.69
30.22
27.44
25.28
23.71
22.80
22.62
23.09
23.89
24.50
24.43
23.33
21.18
18.22
14.82
11.27
7.70
4.02
0.02
-4.58
-10.05
-16.58
-24.11
-32.26
-40.12
-46.37
-49.52
-48.32
-42.24
-31.63
-17.68
-2.00
13.81
28.47
41.11
51.14
58.18
62.01
62.65
60.54
56.48
51.50
46.57
42.28
38.79
35.93
33.36
30.81
28.17
25.41
22.49
19.27
15.50
10.94
5.40
-1.07
-8.27
-15.79
-23.11
-29.80
-35.61
-40.55
-44.93
-49.22
-53.95
-59.47
-65.77
-72.46
-78.66
-83.21
-84.86
-82.60
-76.01
-65.38
-51.76
-36.67
-21.72
-8.24
2.94
11.43
17.18
20.28
20.94
19.46
16.32
12.22
7.94
4.15
1.23
-0.85
-2.41
-3.90
-5.62
-7.60
-9.62
-11.42
-12.82
-13.87
-14.75
-15.67
-16.73
-17.88
-19.08
-20.36
-21.97
-24.28
-27.73
-32.61
-38.87
-46.01
-52.97
-58.32
-60.57
-58.57
-51.92
-41.13
-27.46
-12.58
1.95
14.96
25.78
34.12
39.88
43.08
43.83
42.43
39.37
35.31
30.95
26.85
23.39
20.68
18.64
17.11
15.98
15.20
14.74
14.51
14.26
13.61
12.13
9.52
5.81
1.31
-3.47
-8.04
-12.19
-16.03
-20.02
-24.71
-30.51
-37.45
-45.01
-52.08
-57.14
-58.68
-55.60
-47.64
-35.53
-20.78
-5.27
9.31
21.78
31.60
38.69
43.24
45.43
45.47
43.64
40.35
36.16
31.67
27.37
23.55
20.31
17.68
15.68
14.36
13.74
13.73
14.01
14.11
13.52
11.88
9.16
5.59
1.63
-2.33
-6.08
-9.72
-13.59
-18.15
-23.74
-30.45
-37.91
-45.31
-51.45
-54.97
-54.69
-50.01
-41.08
-28.87
-14.86
-0.65
12.46
23.66
32.64
39.34
43.82
46.12
46.28
44.55
41.35
37.28
32.99
28.99
25.58
22.84
20.70
19.04
17.75
16.70
15.73
14.63
13.12
10.94
7.97
4.26
0.06
-4.24
-8.28
-11.86
-15.10
-18.39
-22.33
-27.49
-34.10
-41.90
-50.01
-57.03
-61.41
-61.83
-57.56
-48.77
-36.42
-21.98
-7.04
7.05
19.39
29.54
37.38
42.92
46.21
47.33
46.48
44.05
40.58
36.68
32.86
29.40
26.37
23.69
21.26
19.09
17.24
15.74
14.51
13.28
11.67
9.35
6.17
2.30
-1.91
-6.05
-9.80
-13.06
-16.07
-19.28
-23.23
-28.37
-34.84
-42.30
-49.87
-56.27
-60.00
-59.83
-55.13
-46.13
-33.87
-19.86
-5.64
7.57
19.05
28.50
35.80
40.87
43.62
44.10
42.63
39.81
36.42
33.11
30.22
27.80
25.64
23.54
21.40
19.26
17.17
15.13
12.98
10.52
7.58
4.06
0.02
-4.42
-9.09
-13.83
-18.52
-23.13
-27.74
-32.54
-37.77
-43.58
-49.87
-56.13
-61.42
-64.50
-64.11
-59.36
-50.04
-36.78
-20.93
-4.23
11.62
25.32
36.18
44.01
49.00
51.47
51.76
50.20
47.17
43.03
38.19
32.98
27.67
22.43
17.43
12.83
8.84
5.67
3.43
2.05
1.24
0.54
-0.55
-2.42
-5.20
-8.71
-12.57
-16.36
-19.77
-22.75
-25.51
-28.49
-32.15
-36.84
-42.63
-49.06
-55.15
-59.48
-60.54
-57.18
-49.07
-36.88
-22.06
-6.42
8.43
21.43
32.12
40.39
46.19
49.43
50.04
48.20
44.42
39.55
34.53
30.07
26.55
23.97
22.10
20.65
19.40
18.24
17.13
16.02
14.83
13.44
11.69
9.44
6.56
3.08
-0.89
-5.12
-9.32
-13.27
-16.88
-20.29
-23.87
-28.12
-33.47
-39.92
-46.85
-52.98
-56.57
-55.85
-49.51
-37.01
-18.71
4.16
29.63
55.29
78.56
97.14
109.40
114.64
113.18
106.07
94.71
80.48
64.56
47.95
31.51
16.04
2.14
-9.84
-19.77
-27.77
-33.98
-38.60
-41.80
-43.83
-45.03
-45.75
-46.27
-46.71
-47.03
-47.12
-46.94
-46.55
-46.23
-46.38
-47.39
-49.53
-52.78
-56.75
-60.69
-63.53
-64.09
-61.34
-54.69
-44.25
-30.83
-15.82
-0.82
12.78
24.08
32.71
38.71
42.28
43.67
43.12
40.96
37.63
33.65
29.52
25.62
22.16
19.23
16.91
15.26
14.36
14.13
14.40
14.81
14.95
14.44
13.03
10.66
7.45
3.68
-0.31
-4.28
-8.15
-12.05
-16.33
-21.36
-27.43
-34.49
-42.09
-49.32
-54.99
-57.83
-56.89
-51.80
-42.87
-31.05
-17.63
-3.92
8.98
20.32
29.61
36.57
41.04
43.02
42.78
40.81
37.81
34.49
31.37
28.65
26.29
24.12
22.00
19.97
18.21
16.88
16.00
15.32
14.40
12.79
10.23
6.77
2.77
-1.29
-5.03
-8.27
-11.17
-14.13
-17.60
-21.99
-27.43
-33.70
-40.19
-45.94
-49.78
-50.63
-47.74
-40.99
-30.92
-18.63
-5.44
7.36
18.77
28.17
35.26
39.97
42.37
42.67
41.21
38.47
35.04
31.46
28.20
25.50
23.39
21.71
20.23
18.72
17.07
15.26
13.37
11.51
9.69
7.82
5.71
3.15
0.08
-3.39
-7.00
-10.46
-13.64
-16.70
-20.01
-24.09
-29.30
-35.65
-42.64
-49.27
-54.28
-56.44
-54.92
-49.56
-40.94
-30.17
-18.58
-7.33
2.81
11.51
18.63
24.06
27.58
28.97
28.23
25.70
22.09
18.25
14.90
12.39
10.73
9.73
9.19
9.10
9.55
10.58
12.03
13.57
14.78
15.50
15.95
16.77
18.66
21.92
26.12
30.13
32.46
31.86
27.77
20.33
10.14
-2.03
-15.48
-29.37
-42.43
-52.93
-59.11
-59.93
-55.78
-48.51
-40.84
-35.18
-32.74
-33.33
-35.86
-39.38
-43.61
-48.99
-55.91
-63.92
-71.45
-76.34
-76.93
-73.09
-66.53
-60.31
-57.73
-61.18
-71.38
-87.19
-105.84
-123.61
-136.71
-142.23
-138.93
-127.55
-110.45
-90.88
-72.04
-56.41
-45.52
-40.02
-39.88
-44.29
-51.68
-59.67
-65.54
-66.86
-62.20
-51.44
-35.64
-16.48
4.32
25.33
45.59
64.45
81.35
95.61
106.38
112.69
113.81
109.69
101.34
90.85
80.77
73.12
68.62
66.50
65.13
63.08
60.05
56.90
55.11
55.79
59.06
64.04
69.49
74.54
79.09
83.70
89.11
95.73
103.43
111.62
119.52
126.48
132.08
136.26
139.21
141.28
142.77
143.80
144.27
143.90
142.36
139.52
135.53
130.85
126.17
122.16
119.28
117.66
117.03
116.76
115.94
113.35
107.73
97.98
83.62
65.05
43.68
21.60
1.04
-16.19
-29.13
-37.59
-42.10
-43.69
-43.93
-44.92
-49.13
-58.78
-74.95
-96.93
-122.13
-146.82
-167.33
-181.29
-188.13
-188.83
-185.14
-178.79
-171.05
-162.54
-153.29
-142.85
-130.45
-115.36
-97.36
-77.10
-56.13
-36.41
-19.57
-6.36
3.41
10.39
15.10
17.58
17.51
14.82
10.08
4.57
-0.20
-3.15
-4.12
-3.85
-3.58
-4.46
-6.95
-10.80
-15.16
-19.12
-22.11
-24.16
-25.86
-27.97
-31.11
-35.49
-40.88
-46.77
-52.49
-57.22
-59.95
-59.43
-54.33
-43.58
-26.94
-5.30
19.42
45.01
69.69
92.60
113.46
131.89
146.64
155.63
156.64
148.45
131.63
108.51
82.36
56.25
32.28
11.36
-6.40
-21.23
-33.51
-43.71
-52.57
-60.87
-69.27
-78.00
-86.81
-95.17
-102.50
-108.46
-113.06
-116.62
-119.74
-123.06
-127.05
-131.69
-136.31
-139.53
-139.58
-134.81
-124.32
-108.32
-88.17
-65.95
-43.82
-23.46
-5.84
8.78
20.47
29.41
35.68
39.34
40.58
39.84
37.78
35.12
32.46
30.18
28.38
27.00
25.88
24.86
23.74
22.36
20.57
18.29
15.55
12.50
9.29
6.01
2.57
-1.32
-6.09
-12.13
-19.60
-28.22
-37.12
-44.87
-49.75
-50.20
-45.29
-35.06
-20.50
-3.34
14.51
31.44
46.41
58.95
68.94
76.38
81.22
83.40
82.97
80.23
75.75
70.31
64.65
59.32
54.60
50.55
47.02
43.87
40.93
38.08
35.23
32.29
29.21
25.94
22.43
18.56
14.14
8.97
2.89
-4.18
-12.14
-20.72
-29.39
-37.38
-43.67
-47.27
-47.39
-43.65
-35.99
-24.54
-9.31
9.83
32.86
59.18
87.19
114.19
136.78
151.61
156.14
149.30
131.75
105.68
74.32
41.18
9.34
-18.94
-42.30
-59.97
-71.38
-75.86
-72.63
-61.03
-40.94
-13.16
20.37
56.43
90.85
119.13
137.52
143.98
138.89
124.90
106.00
86.25
68.66
54.75
44.83
38.55
35.31
34.38
34.93
36.17
37.83
40.45
45.11
52.52
61.78
69.94
72.73
66.44
50.01
26.10
0.31
-21.04
-33.40
-35.64
-29.82
-19.63
-8.43
1.98
11.43
20.48
29.35
37.51
43.87
47.60
48.77
48.44
48.07
48.69
50.14
51.14
49.90
45.10
36.65
25.80
14.62
5.06
-1.71
-5.66
-7.58
-8.61
-9.78
-11.84
-15.31
-20.65
-28.20
-38.11
-50.15
-63.75
-78.19
-92.88
-107.50
-121.90
-135.80
-148.64
-159.61
-167.91
-173.27
-176.09
-177.39
-178.22
-179.11
-179.72
-179.00
-175.76
-169.28
-159.71
-147.93
-135.13
-122.25
-109.73
-97.56
-85.61
-73.88
-62.61
-52.12
-42.56
-33.74
-25.25
-16.81
-8.63
-1.42
3.94
7.05
8.46
9.73
12.83
19.22
29.21
41.91
55.91
70.01
83.72
97.00
109.62
120.60
128.31
131.14
128.39
120.78
110.15
98.69
88.15
79.18
71.44
64.19
56.90
49.46
42.01
34.52
26.62
17.83
7.64
-4.08
-16.85
-29.75
-41.86
-52.58
-62.01
-70.60
-78.55
-85.79
-91.87
-95.86
-96.56
-92.76
-83.47
-68.50
-48.22
-22.91
6.33
37.37
67.89
95.59
118.57
135.56
145.47
148.13
145.85
140.91
134.57
127.55
119.84
110.89
99.96
85.64
67.17
47.11
27.73
9.60
-7.15
-22.99
-38.71
-55.16
-74.20
-97.58
-123.48
-150.30
-177.48
-203.44
-226.29
-244.61
-248.38
-231.29
-210.26
-193.20
-175.30
-152.92
-123.01
-84.76
-39.88
7.99
54.05
93.80
126.82
152.53
169.29
176.81
176.58
172.05
162.69
149.27
132.29
113.28
92.63
71.28
53.08
42.56
42.77
52.17
66.58
80.19
89.29
92.06
88.75
81.78
72.38
62.37
52.88
44.41
36.13
27.19
16.53
3.56
-11.61
-29.90
-51.47
-75.64
-100.25
-122.78
-141.08
-154.79
-164.80
-172.62
-180.89
-190.12
-198.58
-202.92
-200.48
-190.86
-176.08
-157.98
-127.69
-80.91
-19.71
46.49
105.84
149.14
176.17
188.95
191.37
188.03
178.72
163.16
140.70
111.78
78.93
46.65
19.51
1.03
-7.93
-10.67
-11.35
-13.26
-17.33
-22.56
-27.25
-30.54
-32.18
-32.24
-31.59
-30.37
-28.24
-24.52
-18.69
-10.64
-1.02
9.34
19.44
27.96
34.34
39.11
43.94
50.74
60.10
69.98
76.09
73.64
59.58
34.76
3.77
-26.93
-51.89
-68.77
-78.65
-84.44
-88.78
-92.69
-95.63
-96.61
-95.42
-93.07
-91.45
-92.26
-96.22
-102.67
-109.86
-115.66
-118.24
-116.58
-110.74
-101.45
-89.66
-75.98
-60.50
-42.88
-22.81
-0.44
23.39
47.22
69.40
88.55
103.92
115.62
124.48
131.66
138.08
144.05
149.06
152.15
152.38
149.33
143.28
135.02
125.35
114.70
103.00
89.89
75.13
58.88
41.87
25.13
9.72
-3.54
-14.22
-22.29
-27.96
-31.58
-33.54
-34.16
-33.78
-32.70
-31.15
-29.27
-27.05
-24.33
-20.90
-16.56
-11.18
-4.74
2.72
11.00
19.67
27.91
34.64
38.85
40.09
38.70
35.64
32.03
28.55
25.25
21.86
18.36
15.31
13.72
14.47
17.58
21.97
25.80
27.13
24.72
18.33
8.73
-2.82
-15.06
-27.15
-38.83
-50.24
-61.55
-72.46
-81.92
-88.35
-90.19
-86.70
-78.52
-67.66
-56.79
-48.34
-43.64
-42.68
-44.43
-47.51
-50.91
-54.34
-58.24
-63.30
-69.94
-77.88
-86.03
-92.82
-96.71
-96.64
-92.32
-84.14
-72.91
-59.51
-44.73
-29.24
-13.69
1.25
14.96
27.00
37.19
45.73
52.99
59.41
65.27
70.61
75.20
78.66
80.62
80.89
79.63
77.24
74.35
71.58
69.33
67.66
66.24
64.45
61.60
57.18
51.07
43.58
35.34
27.12
19.69
13.70
9.64
7.73
7.78
8.98
10.10
9.73
6.89
1.49
-5.66
-13.24
-20.12
-25.93
-31.21
-36.90
-43.58
-50.88
-57.35
-61.06
-60.44
-55.05
-45.91
-35.19
-25.48
-19.01
-16.97
-19.44
-25.60
-34.35
-44.77
-56.43
-69.22
-82.98
-97.15
-110.64
-122.08
-130.32
-134.88
-136.11
-135.03
-132.83
-130.40
-128.06
-125.47
-121.95
-116.82
-109.60
-100.25
-89.14
-76.87
-64.20
-51.90
-40.69
-31.18
-23.82
-18.78
-15.87
-14.41
-13.32
-11.34
-7.33
-0.60
8.99
21.14
35.29
50.85
67.31
84.12
100.69
116.31
130.24
141.89
150.92
157.34
161.45
163.60
164.02
162.63
159.07
152.92
143.92
132.25
118.51
103.54
88.18
73.01
58.32
44.21
30.85
18.46
7.26
-2.73
-11.85
-20.64
-29.66
-39.12
-48.67
-57.40
-64.10
-67.54
-66.87
-61.87
-53.05
-41.55
-28.86
-16.52
-5.77
2.57
8.17
11.14
11.83
10.79
8.61
5.81
2.79
-0.24
-3.14
-5.89
-8.37
-10.43
-11.96
-12.90
-13.41
-13.73
-14.18
-14.92
-16.01
-17.33
-18.76
-20.23
-21.84
-23.88
-26.85
-31.26
-37.43
-45.13
-53.31
-60.08
-63.15
-60.49
-51.11
-35.51
-15.57
6.00
26.51
43.96
57.30
66.38
71.60
73.59
72.99
70.41
66.38
61.37
55.80
50.01
44.30
38.94
34.16
30.09
26.75
24.07
21.90
20.15
18.72
17.44
16.09
14.30
11.75
8.24
3.76
-1.51
-7.40
-13.79
-20.64
-27.71
-34.28
-39.02
-40.29
-36.69
-27.77
-14.25
2.19
19.52
36.12
51.01
63.88
74.58
82.93
88.66
91.67
92.27
91.11
88.95
86.22
82.92
78.67
73.06
65.93
57.49
48.17
38.31
28.07
17.32
5.86
-6.39
-19.17
-31.89
-43.77
-54.05
-62.23
-68.18
-72.14
-74.62
-76.24
-77.59
-78.99
-80.30
-80.89
-79.80
-76.06
-69.23
-59.79
-49.19
-39.59
-33.20
-31.64
-35.41
-43.70
-54.48
-64.83
-71.53
-71.77
-63.86
-47.80
-25.44
0.00
24.79
45.82
61.38
71.44
77.31
80.81
83.50
86.16
88.77
90.83
91.82
91.52
90.10
87.99
85.65
83.37
81.28
79.27
77.17
74.61
71.09
65.93
58.36
47.84
34.35
18.47
1.38
-15.48
-30.86
-44.01
-54.86
-63.90
-71.96
-79.84
-88.11
-96.92
-106.00
-114.77
-122.45
-128.14
-130.92
-129.88
-124.32
-113.97
-99.27
-81.44
-62.26
-43.73
-27.43
-14.27
-4.37
2.66
7.46
10.58
12.51
13.71
14.72
16.13
18.45
21.94
26.48
31.61
36.61
40.84
43.88
45.71
46.62
47.13
47.64
48.28
48.88
49.06
48.49
47.03
44.82
42.11
39.12
35.83
32.00
27.26
21.30
14.08
5.90
-2.70
-11.08
-18.69
-25.21
-30.50
-34.52
-37.27
-38.75
-39.05
-38.40
-37.26
-36.17
-35.58
-35.72
-36.46
-37.50
-38.43
-39.01
-39.26
-39.46
-40.05
-41.43
-43.88
-47.38
-51.57
-55.73
-58.86
-59.90
-57.93
-52.53
-43.85
-32.62
-19.96
-7.07
5.02
15.51
23.89
29.86
33.35
34.49
33.66
31.46
28.51
25.38
22.46
19.94
17.91
16.41
15.44
14.99
14.98
15.22
15.46
15.48
15.10
14.26
13.02
11.48
9.76
7.94
5.99
3.83
1.29
-1.85
-5.75
-10.42
-15.56
-20.51
-24.35
-25.96
-24.42
-19.23
-10.58
0.70
13.30
25.75
36.76
45.44
51.35
54.41
54.85
53.02
49.40
44.55
39.05
33.50
28.37
23.94
20.31
17.44
15.23
13.64
12.61
12.05
11.76
11.39
10.58
9.08
6.87
4.14
1.23
-1.60
-4.29
-6.99
-10.00
-13.61
-17.99
-23.00
-28.18
-32.67
-35.35
-35.09
-31.08
-23.20
-12.16
0.60
13.35
24.52
33.08
38.66
41.38
41.64
39.94
36.71
32.41
27.51
22.48
17.73
13.58
10.21
7.73
6.10
5.21
4.81
4.56
4.15
3.35
2.10
0.49
-1.33
-3.23
-5.22
-7.38
-9.85
-12.82
-16.47
-20.96
-26.25
-32.00
-37.45
-41.47
-42.79
-40.44
-34.09
-24.25
-12.10
0.82
13.02
23.41
31.38
36.80
39.77
40.54
39.44
36.79
32.96
28.38
23.47
18.62
14.18
10.39
7.39
5.18
3.65
2.62
1.86
1.16
0.34
-0.71
-2.05
-3.70
-5.63
-7.81
-10.24
-12.98
-16.21
-20.14
-24.97
-30.64
-36.69
-42.21
-45.95
-46.66
-43.45
-36.17
-25.44
-12.54
0.94
13.54
24.20
32.36
37.88
40.90
41.61
40.27
37.17
32.78
27.66
22.46
17.75
13.88
10.93
8.70
6.93
5.35
3.86
2.47
1.24
0.13
-1.00
-2.43
-4.36
-6.83
-9.68
-12.68
-15.70
-18.81
-22.28
-26.38
-31.10
-35.90
-39.76
-41.39
-39.72
-34.29
-25.41
-14.10
-1.74
10.29
20.97
29.67
36.11
40.20
41.96
41.48
39.03
35.06
30.17
25.02
20.14
15.87
12.38
9.64
7.56
5.96
4.69
3.55
2.36
0.97
-0.69
-2.62
-4.79
-7.12
-9.59
-12.23
-15.09
-18.32
-22.05
-26.43
-31.44
-36.76
-41.71
-45.22
-46.11
-43.44
-36.87
-26.83
-14.47
-1.31
11.15
21.77
29.94
35.50
38.56
39.40
38.32
35.70
31.95
27.55
22.96
18.58
14.67
11.36
8.68
6.58
4.96
3.69
2.58
1.45
0.13
-1.47
-3.39
-5.60
-8.09
-10.81
-13.80
-17.12
-20.92
-25.39
-30.62
-36.42
-42.18
-46.85
-49.14
-47.95
-42.81
-34.08
-22.86
-10.62
1.28
11.87
20.60
27.23
31.65
33.76
33.58
31.36
27.55
22.79
17.76
12.99
8.86
5.59
3.21
1.63
0.61
-0.20
-1.14
-2.47
-4.28
-6.52
-9.08
-11.87
-14.94
-18.39
-22.37
-26.96
-32.18
-37.99
-44.33
-51.04
-57.76
-63.75
-68.00
-69.35
-66.88
-60.30
-50.09
-37.44
-23.81
-10.48
1.77
12.70
22.47
31.33
39.42
46.74
53.14
58.50
62.73
65.77
67.55
67.98
66.92
64.26
59.92
53.88
46.17
36.88
26.19
14.36
1.74
-11.22
-24.06
-36.33
-47.68
-57.97
-67.37
-76.34
-85.48
-95.26
-105.66
-115.92
-124.57
-129.75
-129.79
-123.80
-112.00
-95.62
-76.56
-56.84
-38.08
-21.36
-7.19
4.31
13.23
19.76
24.21
27.02
28.70
29.75
30.61
31.53
32.63
33.93
35.42
37.08
38.80
40.38
41.50
41.83
41.14
39.38
36.71
33.40
29.69
25.77
21.69
17.43
12.95
8.20
3.18
-1.95
-6.74
-10.39
-11.89
-10.22
-4.82
4.17
15.77
28.46
40.59
50.80
58.25
62.72
64.38
63.65
61.03
57.01
52.05
46.55
40.86
35.27
30.00
25.26
21.16
17.76
14.98
12.67
10.65
8.75
6.84
4.83
2.67
0.29
-2.31
-5.13
-8.10
-11.21
-14.53
-18.24
-22.49
-27.32
-32.37
-36.85
-39.60
-39.45
-35.58
-27.84
-16.88
-4.00
9.25
21.40
31.44
38.79
43.35
45.26
44.84
42.46
38.62
33.85
28.74
23.83
19.53
16.09
13.57
11.84
10.66
9.71
8.70
7.47
5.96
4.25
2.48
0.71
-1.09
-3.06
-5.35
-8.13
-11.51
-15.54
-20.27
-25.59
-31.24
-36.59
-40.64
-42.24
-40.37
-34.56
-25.12
-13.10
-0.07
12.42
23.14
31.46
37.23
40.65
42.04
41.67
39.83
36.77
32.82
28.35
23.76
19.42
15.64
12.65
10.51
9.18
8.41
7.89
7.23
6.20
4.69
2.73
0.44
-2.08
-4.79
-7.68
-10.82
-14.29
-18.21
-22.75
-27.96
-33.64
-39.15
-43.38
-45.01
-42.93
-36.69
-26.73
-14.33
-1.14
11.27
21.80
29.93
35.59
38.89
40.03
39.22
36.75
33.05
28.68
24.19
20.03
16.46
13.60
11.40
9.80
8.68
7.87
7.20
6.41
5.30
3.75
1.73
-0.70
-3.49
-6.55
-9.86
-13.37
-17.08
-21.00
-25.19
-29.78
-34.80
-40.04
-44.84
-48.18
-48.86
-45.95
-39.13
-28.94
-16.60
-3.69
8.33
18.47
26.27
31.76
35.18
36.89
37.16
36.27
34.49
32.11
29.42
26.68
24.10
21.80
19.86
18.33
17.20
16.40
15.69
14.80
13.42
11.44
8.88
5.98
2.96
-0.03
-3.01
-6.08
-9.33
-12.87
-16.75
-21.06
-25.79
-30.73
-35.22
-38.20
-38.49
-35.17
-28.07
-17.87
-5.94
6.07
16.81
25.39
31.52
35.27
36.90
36.69
34.93
31.99
28.28
24.28
20.36
16.77
13.56
10.71
8.21
6.09
4.44
3.27
2.52
1.95
1.24
0.10
-1.64
-3.96
-6.71
-9.66
-12.61
-15.48
-18.27
-21.12
-24.24
-27.86
-32.08
-36.73
-41.25
-44.72
-46.07
-44.40
-39.30
-31.06
-20.62
-9.30
1.53
10.82
17.95
22.79
25.52
26.46
25.96
24.34
21.94
19.07
16.07
13.23
10.75
8.75
7.26
6.24
5.65
5.41
5.48
5.80
6.23
6.58
6.63
6.15
5.03
3.30
1.15
-1.20
-3.51
-5.71
-7.89
-10.29
-13.21
-16.85
-21.16
-25.69
-29.59
-31.80
-31.29
-27.47
-20.43
-10.96
-0.36
10.00
19.02
26.09
31.00
33.74
34.42
33.16
30.28
26.26
21.78
17.52
13.90
11.03
8.72
6.70
4.81
3.08
1.68
0.71
0.13
-0.26
-0.75
-1.56
-2.78
-4.33
-6.06
-7.82
-9.53
-11.21
-12.97
-14.94
-17.28
-20.13
-23.54
-27.44
-31.49
-35.05
-37.24
-37.14
-34.13
-28.14
-19.77
-10.20
-0.79
7.31
13.43
17.42
19.48
19.94
19.05
17.05
14.21
10.93
7.73
5.12
3.39
2.53
2.30
2.34
2.37
2.31
2.25
2.28
2.39
2.42
2.08
1.10
-0.60
-2.90
-5.51
-8.16
-10.67
-13.08
-15.58
-18.45
-21.90
-25.92
-30.20
-34.05
-36.52
-36.61
-33.59
-27.29
-18.23
-7.50
3.53
13.57
21.67
27.36
30.53
31.36
30.23
27.64
24.22
20.60
17.31
14.65
12.65
11.13
9.84
8.54
7.15
5.69
4.28
3.00
1.85
0.73
-0.56
-2.20
-4.27
-6.71
-9.33
-11.92
-14.38
-16.77
-19.29
-22.23
-25.77
-29.94
-34.53
-39.08
-42.90
-45.18
-45.06
-41.91
-35.51
-26.18
-14.78
-2.50
9.39
19.82
28.06
33.80
37.03
38.03
37.31
35.52
33.37
31.51
30.33
29.91
30.04
30.43
30.90
31.55
32.74
34.89
38.30
43.00
48.76
55.19
61.95
68.84
75.81
82.90
90.13
97.39
104.35
110.27
113.96
113.80
108.16
95.93
77.18
53.50
27.81
3.52
-16.35
-30.11
-37.61
-39.95
-38.89
-36.14
-33.03
-30.40
-28.76
-28.36
-29.20
-31.06
-33.48
-35.86
-37.68
-38.66
-38.77
-38.29
-37.55
-36.85
-36.28
-35.75
-35.06
-34.07
-32.82
-31.62
-30.91
-31.06
-32.22
-34.22
-36.62
-38.93
-40.83
-42.26
-43.43
-44.70
-46.39
-48.77
-51.86
-55.50
-59.13
-61.89
-62.70
-60.51
-54.65
-45.20
-32.98
-19.42
-6.07
5.77
15.31
22.31
26.79
28.87
28.69
26.47
22.66
17.92
13.00
8.52
4.79
1.82
-0.54
-2.41
-3.81
-4.66
-4.95
-4.82
-4.56
-4.54
-5.04
-6.21
-8.03
-10.33
-12.87
-15.45
-17.93
-20.34
-22.89
-25.89
-29.63
-34.22
-39.41
-44.55
-48.64
-50.53
-49.29
-44.42
-36.10
-25.12
-12.73
-0.28
11.07
20.51
27.65
32.38
34.81
35.14
33.66
30.78
26.96
22.70
18.41
14.38
10.76
7.64
5.07
3.08
1.71
0.93
0.60
0.47
0.20
-0.47
-1.77
-3.72
-6.22
-9.08
-12.07
-15.03
-17.91
-20.82
-23.97
-27.65
-32.05
-37.10
-42.32
-46.80
-49.34
-48.83
-44.58
-36.63
-25.75
-13.21
-0.40
11.52
21.80
30.05
36.11
39.89
41.37
40.61
37.90
33.74
28.79
23.72
19.07
15.12
11.96
9.51
7.62
6.17
5.09
4.35
3.88
3.51
2.93
1.83
-0.02
-2.64
-5.80
-9.11
-12.21
-14.96
-17.48
-20.18
-23.51
-27.77
-32.96
-38.56
-43.65
-47.06
-47.62
-44.52
-37.57
-27.31
-14.88
-1.75
10.70
21.41
29.78
35.58
38.89
39.88
38.83
36.10
32.19
27.65
23.01
18.69
14.92
11.79
9.29
7.41
6.16
5.53
5.42
5.57
5.63
5.17
3.89
1.70
-1.25
-4.62
-8.07
-11.40
-14.63
-17.96
-21.67
-26.01
-31.12
-36.86
-42.81
-48.14
-51.73
-52.37
-49.13
-41.71
-30.63
-17.16
-2.90
10.61
22.27
31.51
38.14
42.23
43.92
43.46
41.24
37.80
33.77
29.69
25.93
22.61
19.77
17.34
15.34
13.82
12.81
12.27
12.01
11.70
10.92
9.33
6.74
3.22
-0.85
-4.97
-8.65
-11.65
-14.07
-16.32
-18.99
-22.52
-27.04
-32.14
-36.94
-40.21
-40.70
-37.49
-30.31
-19.62
-6.51
7.58
21.23
33.29
42.96
49.79
53.57
54.36
52.48
48.48
43.05
36.91
30.68
24.78
19.58
15.41
12.72
11.95
13.46
17.38
23.47
31.03
38.99
45.91
50.28
50.75
46.44
37.20
23.59
6.79
-11.77
-30.71
-48.94
-65.80
-80.99
-94.44
-106.07
-115.56
-122.28
-125.38
-124.06
-117.92
-107.22
-92.90
-76.38
-59.19
-42.65
-27.75
-15.14
-5.26
1.65
5.63
7.06
6.69
5.47
4.33
3.91
4.45
5.88
7.96
10.44
13.14
15.90
18.53
20.75
22.24
22.77
22.25
20.81
18.70
16.27
13.79
11.46
9.27
7.06
4.50
1.16
-3.27
-8.85
-15.14
-21.17
-25.59
-26.97
-24.27
-17.19
-6.39
6.78
20.57
33.36
43.94
51.66
56.36
58.16
57.37
54.41
49.82
44.20
38.13
32.08
26.28
20.79
15.63
10.89
6.77
3.56
1.47
0.43
0.15
0.07
-0.40
-1.74
-4.17
-7.60
-11.74
-16.16
-20.54
-24.70
-28.75
-33.03
-37.95
-43.80
-50.42
-57.04
-62.29
-64.50
-62.17
-54.55
-41.91
-25.57
-7.50
10.19
25.77
38.14
46.87
51.98
53.80
52.74
49.37
44.31
38.32
32.13
26.35
21.35
17.25
13.99
11.40
9.40
7.96
7.11
6.82
6.94
7.12
6.95
6.09
4.39
1.99
-0.81
-3.71
-6.61
-9.72
-13.44
-18.18
-24.09
-30.84
-37.60
-43.12
-46.06
-45.31
-40.29
-31.15
-18.80
-4.63
9.75
22.93
33.96
42.40
48.25
51.71
53.09
52.70
50.86
47.97
44.48
40.90
37.67
35.11
33.38
32.47
32.22
32.34
32.51
32.35
31.55
29.91
27.47
24.45
21.23
18.27
15.86
14.10
12.80
11.52
9.73
6.97
3.07
-1.67
-6.42
-9.86
-10.48
-6.96
1.33
14.03
29.76
46.45
61.87
74.19
82.34
86.04
85.55
81.35
73.96
63.83
51.47
37.53
22.82
8.15
-5.77
-18.46
-29.71
-39.45
-47.76
-54.81
-60.87
-66.34
-71.63
-77.07
-82.68
-88.12
-92.71
-95.73
-96.75
-95.88
-93.88
-91.92
-91.18
-92.43
-95.65
-99.90
-103.53
-104.59
-101.35
-92.78
-78.88
-60.65
-39.91
-18.77
0.84
17.56
30.72
40.24
46.40
49.60
50.26
48.86
45.97
42.25
38.35
34.73
31.60
28.91
26.52
24.37
22.55
21.23
20.58
20.55
20.85
21.04
20.65
19.41
17.25
14.35
11.02
7.53
3.96
0.19
-4.08
-9.13
-15.04
-21.48
-27.69
-32.58
-34.99
-33.99
-29.23
-21.09
-10.58
0.90
11.97
21.57
29.13
34.55
38.02
39.77
40.03
38.98
36.87
34.07
31.04
28.25
26.02
24.49
23.61
23.21
23.08
23.03
22.86
22.37
21.37
19.71
17.32
14.23
10.55
6.42
1.85
-3.23
-9.01
-15.65
-23.15
-31.13
-38.82
-45.11
-48.75
-48.77
-44.70
-36.76
-25.83
-13.17
-0.16
11.99
22.40
30.51
36.07
39.06
39.64
38.11
34.88
30.39
25.13
19.60
14.30
9.69
6.09
3.58
2.05
1.19
0.64
0.04
-0.83
-2.11
-3.85
-6.04
-8.62
-11.50
-14.63
-17.98
-21.69
-26.00
-31.15
-37.27
-44.15
-51.15
-57.21
-61.02
-61.35
-57.44
-49.21
-37.34
-23.14
-8.17
6.13
18.64
28.71
36.10
40.81
43.02
43.02
41.19
37.95
33.79
29.15
24.40
19.84
15.68
12.02
8.88
6.18
3.75
1.40
-1.10
-3.96
-7.32
-11.35
-16.14
-21.69
-27.87
-34.37
-40.79
-46.83
-52.40
-57.68
-62.92
-68.21
-73.19
-76.96
-78.29
-75.98
-69.30
-58.22
-43.49
-26.42
-8.52
8.79
24.42
37.63
48.05
55.51
60.06
61.88
61.34
58.95
55.33
51.12
46.89
43.04
39.77
37.13
35.08
33.62
32.71
32.28
32.12
31.81
30.83
28.66
24.97
19.76
13.36
6.22
-1.27
-9.00
-17.19
-26.26
-36.61
-48.25
-60.70
-72.80
-82.87
-88.99
-89.49
-83.38
-70.74
-52.77
-31.52
-9.45
11.18
28.70
42.16
51.26
56.13
57.13
54.79
49.73
42.74
34.70
26.53
19.04
12.84
8.33
5.66
4.78
5.46
7.30
9.75
12.15
13.82
14.22
13.04
10.29
6.20
1.16
-4.47
-10.44
-16.67
-23.16
-30.06
-37.54
-45.72
-54.51
-63.34
-71.08
-76.11
-76.71
-71.63
-60.64
-44.65
-25.56
-5.63
13.10
29.22
42.02
51.31
57.10
59.52
58.87
55.68
50.85
45.47
40.57
36.83
34.36
32.83
31.67
30.41
28.90
27.30
25.92
24.94
24.27
23.51
22.08
19.50
15.61
10.68
5.24
-0.05
-4.76
-8.83
-12.58
-16.63
-21.65
-28.13
-36.16
-45.28
-54.44
-62.10
-66.49
-66.11
-60.10
-48.61
-32.74
-14.28
4.83
22.91
38.84
52.01
62.23
69.47
73.84
75.54
74.93
72.58
69.17
65.40
61.84
58.85
56.52
54.77
53.38
52.21
51.28
50.79
51.07
52.42
54.98
58.63
63.02
67.64
71.92
75.33
77.33
77.37
74.84
69.11
59.64
46.22
29.05
8.88
-13.15
-35.62
-57.01
-75.78
-90.50
-100.01
-103.56
-101.10
-93.33
-81.65
-67.90
-53.95
-41.33
-31.07
-23.60
-18.90
-16.59
-16.09
-16.70
-17.74
-18.65
-19.09
-18.91
-18.19
-17.06
-15.69
-14.18
-12.57
-10.82
-8.90
-6.87
-4.91
-3.35
-2.56
-2.91
-4.56
-7.46
-11.35
-15.80
-20.33
-24.54
-28.18
-31.25
-33.98
-36.76
-39.89
-43.33
-46.61
-48.80
-48.81
-45.75
-39.25
-29.61
-17.70
-4.67
8.30
20.26
30.56
38.80
44.76
48.34
49.60
48.70
46.05
42.20
37.83
33.62
30.05
27.32
25.32
23.72
22.14
20.38
18.39
16.32
14.30
12.32
10.23
7.78
4.76
1.13
-2.96
-7.23
-11.37
-15.21
-18.68
-21.85
-24.90
-28.09
-31.64
-35.78
-40.54
-45.69
-50.61
-54.36
-55.86
-54.13
-48.66
-39.59
-27.66
-14.09
-0.23
12.71
23.82
32.61
38.87
42.59
43.85
42.88
40.01
35.77
30.86
26.04
21.93
18.92
17.06
16.06
15.50
15.03
14.44
13.73
13.02
12.35
11.61
10.55
8.84
6.27
2.78
-1.44
-6.11
-10.93
-15.67
-20.24
-24.63
-28.94
-33.35
-38.03
-43.15
-48.64
-54.12
-58.76
-61.45
-61.03
-56.71
-48.33
-36.53
-22.49
-7.65
6.70
19.64
30.60
39.25
45.35
48.73
49.37
47.52
43.77
38.96
33.96
29.48
25.89
23.16
21.02
19.13
17.24
15.31
13.52
12.05
11.00
10.20
9.24
7.66
5.10
1.47
-3.02
-8.01
-13.13
-18.09
-22.75
-27.08
-31.24
-35.43
-39.97
-45.08
-50.77
-56.57
-61.58
-64.53
-64.15
-59.64
-50.89
-38.59
-24.03
-8.70
6.07
19.30
30.45
39.28
45.66
49.54
50.93
50.02
47.18
42.99
38.09
33.07
28.36
24.18
20.61
17.67
15.32
13.49
12.07
10.94
9.95
8.85
7.28
4.94
1.67
-2.51
-7.45
-12.85
-18.39
-23.82
-29.05
-34.25
-39.59
-45.12
-50.99
-57.38
-64.40
-71.86
-79.05
-84.78
-87.79
-86.75
-80.67
-69.63
-54.91
-38.55
-22.75
-9.27
1.05
8.04
12.57
16.30
20.67
26.59
34.35
43.62
53.39
63.76
72.66
76.97
74.65
65.88
53.00
39.38
27.94
20.27
16.50
15.44
14.09
12.47
11.16
11.11
13.48
19.24
28.54
40.38
52.42
61.96
67.01
66.62
60.30
48.70
33.28
15.73
-2.35
-19.57
-34.34
-44.65
-49.03
-47.12
-39.85
-29.36
-18.30
-8.91
-2.40
1.16
2.65
2.90
2.21
0.58
-2.27
-6.45
-11.75
-17.62
-23.33
-28.13
-31.68
-34.07
-35.59
-36.62
-37.39
-37.91
-38.01
-37.56
-36.69
-35.81
-35.56
-36.40
-38.36
-40.97
-43.40
-44.88
-45.02
-44.06
-42.78
-42.22
-43.22
-46.09
-50.49
-55.48
-59.72
-61.83
-60.73
-55.80
-47.04
-34.99
-20.47
-4.31
13.03
31.55
51.64
73.71
97.55
121.91
144.40
161.97
171.82
172.50
164.50
150.31
133.54
117.77
105.36
96.81
90.93
85.59
78.75
69.21
56.90
42.58
27.30
11.89
-3.22
-17.88
-31.88
-44.76
-55.83
-64.52
-70.72
-74.94
-78.18
-81.54
-85.74
-90.92
-96.58
-101.87
-105.89
-107.93
-107.53
-104.42
-98.47
-89.66
-78.15
-64.42
-49.21
-33.50
-18.34
-4.67
6.83
15.74
21.94
25.63
27.22
27.34
26.65
25.76
25.04
24.62
24.43
24.35
24.27
24.18
24.11
24.06
23.98
23.71
23.06
21.82
19.87
17.14
13.71
9.77
5.60
1.52
-2.21
-5.54
-8.67
-12.01
-15.99
-20.96
-26.85
-33.19
-39.02
-43.09
-44.10
-41.10
-33.77
-22.63
-8.93
5.64
19.39
31.03
39.84
45.67
48.73
49.40
48.08
45.24
41.35
36.96
32.56
28.53
25.07
22.22
19.90
17.99
16.38
15.02
13.94
13.20
12.82
12.74
12.74
12.52
11.75
10.23
7.99
5.28
2.48
-0.09
-2.34
-4.44
-6.82
-9.98
-14.28
-19.80
-26.19
-32.68
-38.15
-41.38
-41.33
-37.44
-29.85
-19.38
-7.33
4.88
15.99
25.18
32.03
36.44
38.43
38.14
35.77
31.71
26.56
21.08
15.98
11.76
8.58
6.27
4.50
2.97
1.58
0.42
-0.33
-0.61
-0.60
-0.66
-1.23
-2.61
-4.90
-7.91
-11.25
-14.52
-17.41
-19.81
-21.85
-23.84
-26.21
-29.32
-33.36
-38.19
-43.25
-47.61
-50.05
-49.40
-44.88
-36.37
-24.53
-10.68
3.58
16.79
27.93
36.47
42.31
45.53
46.29
44.83
41.56
37.07
32.12
27.45
23.57
20.65
18.57
17.02
15.68
14.39
13.17
12.16
11.45
11.00
10.54
9.67
8.01
5.36
1.82
-2.28
-6.41
-10.14
-13.23
-15.76
-18.11
-20.77
-24.21
-28.67
-33.99
-39.58
-44.43
-47.36
-47.23
-43.36
-35.71
-24.96
-12.30
0.81
13.06
23.47
31.47
36.83
39.58
39.90
38.10
34.63
30.09
25.14
20.43
16.43
13.39
11.31
10.01
9.24
8.75
8.43
8.23
8.12
8.01
7.72
6.99
5.57
3.38
0.47
-2.92
-6.47
-9.91
-13.03
-15.82
-18.43
-21.20
-24.52
-28.74
-33.89
-39.54
-44.71
-48.04
-48.15
-44.11
-35.79
-23.93
-9.98
4.35
17.54
28.52
36.72
41.99
44.40
44.20
41.76
37.69
32.74
27.69
23.19
19.59
16.89
14.86
13.20
11.68
10.28
9.10
8.28
7.85
7.67
7.40
6.67
5.19
2.87
-0.08
-3.27
-6.32
-8.98
-11.28
-13.51
-16.07
-19.34
-23.50
-28.41
-33.59
-38.31
-41.62
-42.60
-40.50
-34.96
-26.18
-14.91
-2.34
10.16
21.34
30.25
36.37
39.59
40.13
38.38
34.90
30.34
25.35
20.55
16.38
13.09
10.68
9.03
7.95
7.28
6.87
6.58
6.26
5.72
4.86
3.64
2.12
0.39
-1.50
-3.56
-5.83
-8.29
-10.88
-13.51
-16.12
-18.77
-21.60
-24.77
-28.26
-31.78
-34.66
-35.93
-34.52
-29.59
-20.89
-8.90
5.19
19.76
33.21
44.38
52.81
58.67
62.55
65.25
67.67
70.86
75.92
83.68
94.16
106.16
117.33
124.81
126.30
120.96
109.73
94.79
78.63
63.07
48.87
35.85
23.53
11.53
-0.23
-11.68
-22.78
-33.64
-44.40
-55.07
-65.49
-75.47
-84.93
-94.11
-103.49
-113.56
-124.56
-136.22
-147.63
-157.38
-163.76
-165.29
-161.06
-151.12
-136.55
-119.22
-101.30
-84.78
-70.97
-60.39
-52.95
-48.16
-45.47
-44.32
-44.18
-44.41
-44.35
-43.41
-41.31
-38.20
-34.68
-31.54
-29.50
-28.92
-29.65
-31.21
-32.92
-34.20
-34.75
-34.60
-34.02
-33.49
-33.57
-34.83
-37.74
-42.49
-48.80
-55.81
-62.03
-65.65
-64.88
-58.52
-46.27
-28.91
-8.09
14.09
35.55
54.60
70.12
81.51
88.64
91.77
91.46
88.55
84.05
78.91
73.92
69.51
65.85
62.89
60.56
58.82
57.68
57.16
57.18
57.57
58.03
58.27
58.07
57.30
55.89
53.73
50.63
46.31
40.45
32.84
23.39
12.22
-0.41
-13.97
-27.62
-40.17
-50.09
-55.83
-56.23
-50.91
-40.48
-26.38
-10.53
5.18
19.30
30.95
39.76
45.68
48.85
49.51
48.04
44.94
40.84
36.32
31.82
27.62
23.81
20.41
17.44
14.92
12.80
10.97
9.19
7.21
4.88
2.23
-0.53
-3.15
-5.51
-7.61
-9.66
-11.92
-14.64
-18.07
-22.36
-27.48
-33.08
-38.33
-41.97
-42.55
-38.97
-30.87
-18.90
-4.51
10.47
24.36
35.97
44.72
50.49
53.47
53.95
52.31
49.03
44.66
39.80
34.93
30.39
26.31
22.74
19.62
16.89
14.50
12.36
10.37
8.37
6.18
3.65
0.72
-2.59
-6.17
-9.85
-13.47
-17.01
-20.59
-24.57
-29.31
-35.06
-41.57
-47.97
-52.84
-54.54
-51.80
-44.13
-32.13
-17.27
-1.47
13.42
26.10
35.87
42.57
46.36
47.48
46.23
43.02
38.38
32.97
27.47
22.41
18.05
14.39
11.21
8.20
5.14
1.95
-1.33
-4.54
-7.51
-10.12
-12.30
-14.05
-15.45
-16.67
-17.96
-19.70
-22.29
-26.06
-30.99
-36.52
-41.53
-44.46
-43.79
-38.49
-28.49
-14.70
1.18
17.20
31.57
43.05
50.94
55.09
55.64
53.03
47.87
40.93
33.03
24.95
17.30
10.48
4.73
0.15
-3.31
-5.80
-7.55
-8.86
-9.93
-10.87
-11.72
-12.50
-13.31
-14.39
-15.99
-18.37
-21.67
-25.95
-31.23
-37.42
-44.28
-51.21
-57.14
-60.60
-60.08
-54.47
-43.59
-28.31
-10.41
7.94
24.77
38.74
49.26
56.33
60.21
61.24
59.71
55.98
50.54
44.00
37.06
30.32
24.20
18.90
14.51
10.99
8.30
6.25
4.61
3.07
1.33
-0.74
-3.17
-5.82
-8.57
-11.39
-14.39
-17.77
-21.83
-26.83
-32.91
-39.93
-47.27
-53.75
-57.76
-57.64
-52.24
-41.44
-26.28
-8.71
8.98
24.81
37.52
46.70
52.50
55.30
55.49
53.43
49.52
44.27
38.30
32.22
26.53
21.59
17.46
14.04
11.12
8.53
6.13
3.88
1.69
-0.39
-2.34
-4.22
-6.21
-8.47
-11.12
-14.26
-17.92
-22.18
-26.86
-31.75
-36.71
-41.58
-45.90
-48.67
-48.61
-44.44
-35.59
-21.77
-3.73
16.65
36.59
53.36
65.15
71.26
72.36
69.70
65.87
63.15
62.62
63.53
64.19
63.10
59.51
54.22
48.63
45.83
48.53
57.86
72.63
90.42
108.79
125.57
139.64
140.67
121.38
81.97
31.59
-17.86
-58.43
-86.76
-107.78
-125.29
-140.62
-150.97
-151.70
-137.20
-105.40
-58.55
-2.79
52.88
99.63
130.47
143.41
140.96
128.57
111.85
95.09
80.41
67.61
55.59
42.89
29.57
17.00
7.12
1.20
-0.26
2.67
9.64
20.36
33.86
48.25
60.37
66.34
62.95
49.38
27.96
3.16
-20.32
-39.78
-55.08
-67.87
-79.88
-91.62
-102.04
-109.56
-113.21
-113.12
-109.96
-103.78
-93.43
-76.98
-53.13
-22.64
11.29
43.72
69.64
85.51
90.05
84.14
70.10
50.83
29.18
7.62
-12.03
-28.67
-41.98
-52.26
-60.08
-66.00
-70.45
-73.82
-76.64
-79.60
-83.33
-88.11
-93.55
-98.65
-102.10
-102.84
-100.50
-95.60
-89.36
-83.22
-78.36
-75.32
-74.00
-73.91
-74.46
-75.27
-76.15
-77.06
-77.93
-78.65
-79.16
-79.42
-79.36
-78.56
-76.11
-70.66
-60.95
-46.53
-28.26
-8.31
10.49
25.74
36.27
42.51
46.04
48.85
52.46
57.59
63.96
70.47
75.38
76.51
71.75
59.66
40.25
15.23
-12.16
-38.13
-59.54
-74.81
-84.20
-89.35
-92.39
-95.19
-98.89
-103.89
-109.85
-115.77
-119.99
-120.47
-115.56
-104.95
-90.40
-75.66
-65.44
-63.70
-72.10
-89.21
-110.97
-131.80
-146.16
-149.77
-140.37
-118.02
-84.97
-45.19
-3.54
35.34
68.13
93.39
111.61
124.57
134.47
143.21
152.02
161.35
170.87
179.61
185.99
188.23
184.81
175.13
159.85
140.88
120.84
102.30
87.02
75.66
67.88
62.78
59.53
57.82
57.91
60.44
65.84
73.93
83.70
93.47
101.42
106.09
106.87
104.01
98.40
91.29
84.04
78.13
75.02
76.08
82.22
93.54
109.16
127.37
146.11
163.41
177.79
188.30
194.44
195.86
192.23
183.21
168.54
148.24
122.72
92.95
60.46
27.33
-4.08
-31.60
-53.72
-70.07
-81.60
-90.39
-99.20
-110.95
-128.02
-151.76
-182.02
-216.88
-252.68
-284.65
-307.92
-319.01
-317.03
-304.25
-285.40
-266.08
-250.75
-241.38
-237.19
-235.73
-234.43
-231.85
-227.99
-223.68
-219.51
-215.10
-209.16
-200.17
-187.28
-170.67
-151.45
-131.02
-110.68
-91.41
-74.24
-60.39
-51.00
-46.54
-46.08
-47.10
-46.08
-39.74
-26.19
-5.62
20.02
47.85
75.09
99.65
120.12
135.62
145.47
149.26
146.92
138.85
125.93
109.41
90.97
72.60
56.48
44.48
37.52
35.08
35.21
35.14
32.24
24.91
12.88
-3.10
-21.85
-42.11
-62.41
-80.58
-93.60
-98.11
-91.59
-73.53
-46.04
-13.30
19.85
49.52
73.74
92.49
106.88
118.12
126.85
133.14
136.80
137.92
136.90
134.28
130.42
125.29
118.60
110.34
101.34
93.64
90.26
94.23
107.46
129.72
158.48
189.60
218.61
241.81
256.85
262.47
258.08
243.33
218.39
184.39
143.84
100.48
58.45
21.18
-9.44
-33.37
-52.03
-67.39
-81.15
-94.17
-106.40
-117.25
-125.95
-131.82
-134.36
-133.10
-127.61
-117.71
-103.78
-87.03
-69.36
-52.92
-39.43
-29.63
-23.18
-18.98
-15.78
-12.58
-8.88
-4.58
0.24
5.52
11.24
17.36
23.60
29.40
33.98
36.46
36.29
33.56
29.22
25.11
23.67
27.41
38.17
56.49
81.15
109.12
135.88
156.22
165.34
159.99
139.20
104.58
59.83
9.87
-40.27
-86.19
-124.53
-152.92
-169.87
-174.97
-169.16
-155.01
-136.50
-118.25
-104.26
-96.96
-96.69
-102.24
-111.64
-123.22
-135.98
-149.44
-163.15
-176.19
-187.19
-194.64
-197.36
-194.70
-186.49
-172.86
-154.06
-130.63
-103.57
-74.53
-45.62
-19.02
3.60
21.39
34.37
43.10
48.30
50.53
50.19
47.64
43.40
38.20
32.87
28.19
24.64
22.35
21.08
20.33
19.48
18.02
15.61
12.18
7.84
2.83
-2.63
-8.41
-14.49
-21.02
-28.26
-36.49
-45.78
-55.74
-65.31
-72.78
-76.05
-73.09
-62.56
-44.22
-19.11
10.64
42.26
72.95
100.32
122.71
139.24
149.74
154.52
154.25
149.84
142.31
132.75
122.21
111.60
101.60
92.53
84.43
77.09
70.20
63.44
56.60
49.57
42.32
34.90
27.37
19.78
12.14
4.45
-3.40
-11.62
-20.52
-30.43
-41.45
-53.22
-64.71
-74.29
-79.99
-80.09
-73.66
-60.90
-43.14
-22.47
-1.15
18.91
36.42
50.78
61.85
69.75
74.66
76.78
76.43
74.07
70.26
65.65
60.77
56.01
51.58
47.56
44.07
41.19
38.94
37.22
35.67
33.77
30.98
26.97
21.71
15.51
8.87
2.25
-4.12
-10.31
-16.68
-23.70
-31.82
-41.18
-51.36
-61.33
-69.45
-73.85
-72.89
-65.65
-52.35
-34.24
-13.33
8.14
28.27
45.72
59.86
70.51
77.75
81.78
82.86
81.36
77.80
72.86
67.21
61.42
55.83
50.58
45.74
41.34
37.52
34.47
32.24
30.65
29.21
27.24
24.08
19.42
13.38
6.49
-0.55
-7.16
-13.11
-18.63
-24.26
-30.69
-38.42
-47.56
-57.61
-67.36
-75.11
-79.01
-77.54
-70.02
-56.88
-39.53
-19.97
-0.22
18.06
33.86
46.65
56.17
62.36
65.23
65.01
62.17
57.50
51.84
45.98
40.48
35.60
31.38
27.73
24.59
21.92
19.75
18.07
16.78
15.58
14.02
11.63
8.05
3.21
-2.61
-8.89
-15.11
-20.90
-26.19
-31.22
-36.40
-42.20
-48.97
-56.75
-65.10
-73.03
-79.05
-81.51
-79.06
-71.14
-58.20
-41.58
-23.07
-4.46
12.83
27.86
40.09
49.17
54.93
57.36
56.72
53.61
48.85
43.38
38.02
33.34
29.59
26.73
24.59
22.91
21.51
20.31
19.26
18.30
17.20
15.64
13.23
9.67
4.91
-0.86
-7.16
-13.46
-19.33
-24.56
-29.26
-33.80
-38.69
-44.42
-51.25
-59.02
-67.05
-74.14
-78.78
-79.49
-75.27
-65.92
-52.14
-35.37
-17.34
0.27
16.20
29.67
40.24
47.69
51.92
53.00
51.20
47.14
41.66
35.74
30.24
25.71
22.31
19.86
17.93
16.17
14.34
12.47
10.76
9.36
8.21
7.00
5.22
2.42
-1.59
-6.64
-12.27
-17.96
-23.38
-28.45
-33.30
-38.15
-43.16
-48.40
-53.86
-59.43
-64.81
-69.41
-72.28
-72.24
-68.24
-59.72
-46.90
-30.86
-13.21
4.32
20.25
33.66
44.12
51.54
56.00
57.58
56.43
52.87
47.48
41.06
34.54
28.67
23.93
20.34
17.64
15.49
13.64
12.02
10.73
9.83
9.25
8.71
7.82
6.18
3.56
-0.04
-4.44
-9.31
-14.29
-19.12
-23.71
-28.13
-32.58
-37.36
-42.71
-48.77
-55.45
-62.28
-68.36
-72.45
-73.17
-69.43
-60.84
-47.87
-31.82
-14.44
2.55
17.85
30.71
40.80
48.01
52.27
53.55
51.99
48.03
42.43
36.19
30.27
25.39
21.83
19.47
17.94
16.79
15.73
14.64
13.56
12.56
11.62
10.52
8.94
6.56
3.23
-1.00
-5.87
-11.10
-16.40
-21.62
-26.71
-31.68
-36.63
-41.71
-47.14
-53.10
-59.57
-66.16
-71.99
-75.76
-76.07
-71.84
-62.70
-49.17
-32.57
-14.63
2.90
18.70
31.95
42.28
49.53
53.62
54.52
52.42
47.88
41.85
35.46
29.75
25.29
22.15
19.99
18.35
16.90
15.56
14.43
13.66
13.21
12.82
12.09
10.54
7.84
3.91
-1.09
-6.75
-12.61
-18.25
-23.43
-28.17
-32.68
-37.38
-42.66
-48.82
-55.83
-63.19
-69.90
-74.57
-75.73
-72.23
-63.67
-50.49
-33.92
-15.65
2.63
19.48
33.93
45.36
53.46
58.12
59.42
57.72
53.63
48.04
41.87
35.97
30.90
26.89
23.90
21.69
19.99
18.57
17.37
16.36
15.49
14.61
13.39
11.45
8.45
4.26
-0.94
-6.77
-12.77
-18.60
-24.12
-29.52
-35.15
-41.44
-48.77
-57.27
-66.73
-76.46
-85.31
-91.79
-94.41
-91.97
-83.99
-70.78
-53.48
-33.74
-13.37
6.03
23.27
37.62
48.71
56.35
60.51
61.33
59.23
54.95
49.45
43.69
38.44
34.04
30.53
27.75
25.59
24.00
23.05
22.71
22.81
22.98
22.73
21.60
19.27
15.63
10.87
5.36
-0.43
-6.07
-11.36
-16.35
-21.31
-26.64
-32.67
-39.54
-47.04
-54.53
-60.93
-64.86
-64.98
-60.29
-50.57
-36.47
-19.41
-1.17
16.53
32.36
45.48
55.43
62.00
65.13
64.95
61.86
56.61
50.19
43.65
37.82
33.13
29.54
26.76
24.41
22.27
20.35
18.79
17.69
16.93
16.09
14.64
12.07
8.18
3.13
-2.62
-8.50
-14.10
-19.26
-24.13
-29.02
-34.32
-40.33
-47.22
-54.86
-62.74
-69.84
-74.74
-75.91
-72.15
-63.05
-49.21
-32.10
-13.61
4.44
20.74
34.52
45.46
53.45
58.42
60.33
59.32
55.84
50.67
44.72
38.89
33.73
29.46
25.94
22.94
20.30
18.01
16.19
14.92
14.11
13.42
12.34
10.36
7.14
2.64
-2.82
-8.73
-14.52
-19.83
-24.61
-29.19
-34.11
-39.94
-47.04
-55.34
-64.24
-72.59
-78.82
-81.27
-78.65
-70.39
-56.91
-39.54
-20.14
-0.64
17.40
32.98
45.61
55.09
61.37
64.48
64.60
62.15
57.80
52.33
46.53
41.00
36.10
31.93
28.43
25.50
23.08
21.14
19.66
18.53
17.49
16.11
13.95
10.67
6.20
0.75
-5.23
-11.23
-16.90
-22.15
-27.17
-32.36
-38.18
-44.95
-52.70
-61.00
-68.89
-74.93
-77.48
-75.18
-67.39
-54.51
-37.88
-19.38
-0.91
16.11
30.83
42.88
52.06
58.14
60.98
60.61
57.51
52.55
46.76
41.08
36.09
31.94
28.49
25.50
22.84
20.53
18.71
17.44
16.63
15.92
14.79
12.73
9.44
4.97
-0.33
-5.93
-11.35
-16.38
-21.11
-25.90
-31.16
-37.22
-44.22
-51.91
-59.60
-66.14
-70.07
-69.91
-64.70
-54.31
-39.59
-22.18
-3.99
13.26
28.34
40.60
49.79
55.82
58.73
58.71
56.21
51.90
46.62
41.09
35.78
30.92
26.49
22.48
18.95
16.01
13.78
12.25
11.22
10.32
9.09
7.12
4.16
0.16
-4.67
-9.99
-15.42
-20.62
-25.48
-30.10
-34.79
-39.99
-46.04
-53.05
-60.60
-67.73
-73.00
-74.83
-71.93
-63.79
-50.87
-34.51
-16.55
1.14
17.09
30.42
40.79
48.20
52.79
54.72
54.24
51.74
47.78
43.06
38.23
33.74
29.78
26.28
23.10
20.19
17.66
15.70
14.47
13.84
13.42
12.58
10.74
7.51
2.94
-2.56
-8.37
-13.93
-18.91
-23.37
-27.66
-32.27
-37.66
-44.06
-51.37
-58.99
-65.83
-70.41
-71.23
-67.20
-58.06
-44.54
-28.18
-10.84
5.83
20.72
33.27
43.25
50.55
55.10
56.87
56.08
53.24
49.04
44.23
39.38
34.83
30.71
27.04
23.78
20.94
18.59
16.76
15.42
14.40
13.36
11.85
9.47
5.98
1.46
-3.74
-9.07
-14.07
-18.50
-22.52
-26.59
-31.29
-37.14
-44.26
-52.30
-60.35
-67.07
-70.94
-70.67
-65.49
-55.43
-41.37
-24.78
-7.42
9.10
23.60
35.41
44.26
50.17
53.21
53.56
51.49
47.52
42.31
36.69
31.30
26.62
22.73
19.53
16.80
14.45
12.48
11.02
10.07
9.50
8.95
7.95
6.08
3.16
-0.71
-5.20
-9.87
-14.40
-18.67
-22.80
-27.12
-32.04
-37.92
-44.84
-52.50
-60.10
-66.40
-69.99
-69.58
-64.46
-54.67
-41.09
-25.14
-8.43
7.61
21.94
33.93
43.19
49.52
52.80
53.08
50.69
46.25
40.61
34.64
29.02
24.13
19.97
16.38
13.17
10.29
7.83
5.94
4.70
3.97
3.42
2.61
1.12
-1.31
-4.65
-8.62
-12.82
-16.82
-20.43
-23.74
-27.12
-31.07
-36.05
-42.18
-49.16
-56.14
-61.87
-64.90
-63.97
-58.36
-48.13
-34.14
-17.87
-0.98
15.02
29.01
40.34
48.67
53.90
56.07
55.42
52.42
47.80
42.37
36.91
31.97
27.82
24.41
21.58
19.14
17.01
15.21
13.83
12.91
12.32
11.71
10.64
8.73
5.76
1.84
-2.73
-7.52
-12.20
-16.63
-20.86
-25.15
-29.88
-35.41
-41.93
-49.24
-56.58
-62.72
-66.17
-65.57
-60.20
-50.14
-36.38
-20.43
-3.95
11.64
25.31
36.48
44.82
50.21
52.63
52.28
49.57
45.20
40.04
34.90
30.37
26.68
23.73
21.24
19.01
16.98
15.26
14.00
13.22
12.72
12.06
10.77
8.49
5.14
0.95
-3.64
-8.18
-12.35
-16.15
-19.85
-23.91
-28.79
-34.77
-41.78
-49.38
-56.70
-62.54
-65.57
-64.62
-58.96
-48.64
-34.52
-18.14
-1.27
14.47
27.96
38.64
46.39
51.29
53.48
53.17
50.71
46.64
41.68
36.53
31.75
27.61
24.15
21.27
18.82
16.77
15.13
13.96
13.24
12.77
12.16
10.97
8.85
5.67
1.61
-2.97
-7.62
-12.08
-16.26
-20.32
-24.54
-29.29
-34.88
-41.46
-48.83
-56.28
-62.56
-66.02
-65.13
-58.93
-47.47
-31.84
-13.92
4.12
20.41
33.73
43.70
50.58
55.04
57.81
59.34
59.74
58.82
56.37
52.41
47.48
42.52
38.70
36.94
37.53
40.07
43.59
46.95
49.20
49.85
48.91
46.98
45.50
46.79
53.70
68.44
91.04
118.38
144.33
161.63
164.54
150.99
123.16
86.10
45.40
5.14
-32.74
-67.61
-98.89
-125.22
-144.69
-155.76
-158.12
-152.73
-141.12
-124.59
-104.03
-80.20
-54.60
-29.89
-9.57
3.01
5.94
-0.52
-13.95
-30.75
-47.23
-60.75
-70.15
-75.59
-78.11
-79.06
-79.69
-80.90
-83.16
-86.40
-90.20
-93.89
-96.80
-98.43
-98.54
-97.24
-94.89
-92.04
-89.37
-87.53
-87.07
-88.24
-90.81
-93.98
-96.45
-96.61
-92.98
-84.58
-71.22
-53.52
-32.72
-10.28
12.35
33.97
53.59
70.38
83.65
92.93
98.07
99.44
97.83
94.36
90.21
86.29
83.11
80.74
78.92
77.31
75.67
73.98
72.34
70.86
69.40
67.59
64.91
60.91
55.44
48.75
41.44
34.18
27.42
21.22
15.24
8.93
1.75
-6.57
-15.82
-25.26
-33.70
-39.65
-41.68
-38.80
-30.74
-18.15
-2.47
14.45
30.76
45.04
56.45
64.71
69.87
72.19
72.01
69.85
66.33
62.19
58.05
54.34
51.11
48.18
45.30
42.37
39.54
37.20
35.74
35.36
35.92
36.96
37.88
38.13
37.41
35.66
32.96
29.35
24.69
18.68
10.96
1.27
-10.41
-23.74
-37.98
-52.00
-64.27
-73.12
-77.05
-75.21
-67.67
-55.49
-40.48
-24.70
-9.97
2.50
12.08
18.63
22.30
23.36
22.16
19.15
14.88
9.89
4.65
-0.50
-5.33
-9.71
-13.48
-16.48
-18.56
-19.70
-19.99
-19.69
-19.20
-18.92
-19.24
-20.42
-22.51
-25.38
-28.76
-32.34
-35.90
-39.39
-42.94
-46.81
-51.28
-56.39
-61.77
-66.59
-69.58
-69.36
-64.89
-55.85
-42.84
-27.27
-10.92
4.53
17.86
28.51
36.38
41.59
44.34
44.75
43.02
39.43
34.44
28.67
22.81
17.42
12.91
9.47
7.12
5.78
5.28
5.34
5.53
5.33
4.25
2.01
-1.34
-5.43
-9.69
-13.64
-17.12
-20.29
-23.62
-27.64
-32.75
-39.04
-46.14
-53.15
-58.71
-61.25
-59.41
-52.50
-40.80
-25.56
-8.64
7.97
22.66
34.46
43.09
48.71
51.69
52.39
51.11
48.15
43.83
38.58
32.90
27.25
22.00
17.39
13.55
10.54
8.42
7.22
6.80
6.81
6.68
5.82
3.77
0.47
-3.78
-8.42
-12.91
-16.97
-20.62
-24.26
-28.39
-33.54
-39.96
-47.47
-55.27
-62.02
-66.01
-65.65
-59.95
-48.94
-33.69
-16.03
1.96
18.56
32.64
43.69
51.63
56.58
58.74
58.43
56.16
52.60
48.53
44.64
41.41
39.06
37.62
37.02
37.19
37.99
39.26
40.69
42.00
42.98
43.63
44.16
44.82
45.85
47.30
49.11
51.16
53.40
55.78
58.32
61.07
64.25
68.38
74.28
82.86
94.68
109.44
125.65
140.85
152.26
157.58
155.67
146.71
132.02
113.50
93.13
72.65
53.43
36.47
22.33
11.07
2.10
-5.76
-13.97
-23.85
-36.03
-50.21
-65.18
-79.31
-91.11
-99.80
-105.46
-108.80
-110.75
-112.00
-112.78
-112.93
-112.15
-110.27
-107.33
-103.61
-99.48
-95.27
-91.18
-87.21
-82.97
-77.64
-70.07
-59.35
-45.38
-29.45
-14.27
-3.22
0.77
-3.56
-15.22
-31.25
-47.84
-61.68
-70.89
-75.20
-75.43
-72.65
-67.64
-60.71
-52.13
-42.43
-32.67
-24.17
-18.07
-14.94
-14.50
-15.92
-18.29
-21.02
-24.04
-27.64
-32.10
-37.35
-42.92
-48.10
-52.28
-55.26
-57.26
-58.80
-60.53
-62.88
-65.94
-69.33
-72.18
-73.23
-71.10
-64.64
-53.39
-37.86
-19.51
-0.47
17.16
31.75
42.57
49.68
53.72
55.46
55.49
54.20
51.81
48.54
44.72
40.78
37.13
34.06
31.69
29.98
28.78
27.88
27.08
26.12
24.79
22.87
20.23
16.86
12.89
8.65
4.51
0.80
-2.44
-5.48
-8.89
-13.27
-18.80
-24.87
-30.11
-32.59
-30.63
-23.44
-11.65
2.82
17.42
29.93
39.16
45.23
49.20
52.28
55.18
57.83
59.60
59.87
58.52
56.02
53.29
51.33
51.16
53.83
60.37
71.31
85.94
101.79
114.74
120.17
114.70
97.59
71.11
39.58
7.53
-21.86
-47.53
-70.13
-90.92
-110.84
-129.95
-147.62
-162.95
-175.16
-183.66
-187.85
-187.01
-180.14
-166.40
-145.61
-118.82
-88.46
-57.95
-30.81
-9.62
4.62
12.58
15.99
16.74
16.21
15.02
13.30
11.20
9.07
7.48
6.94
7.55
8.96
10.44
11.25
10.92
9.40
6.93
3.92
0.74
-2.39
-5.40
-8.35
-11.46
-15.06
-19.62
-25.57
-33.01
-41.42
-49.54
-55.50
-57.33
-53.53
-43.66
-28.49
-9.84
10.04
29.00
45.44
58.45
67.63
72.98
74.67
73.03
68.55
61.92
53.99
45.68
37.85
31.18
26.08
22.66
20.75
19.90
19.59
19.27
18.60
17.41
15.75
13.77
11.59
9.26
6.72
3.93
1.00
-1.83
-4.25
-6.23
-8.07
-10.45
-13.78
-17.78
-21.07
-21.46
-16.72
-5.56
11.91
34.47
60.47
88.38
116.55
142.59
163.17
174.66
174.70
163.63
144.64
122.44
101.02
81.94
64.23
45.91
25.97
5.60
-12.38
-25.01
-30.88
-30.58
-26.09
-19.52
-12.19
-4.67
2.96
10.36
16.86
21.54
23.75
23.31
20.55
16.09
10.50
4.17
-2.71
-10.01
-17.42
-24.40
-30.21
-34.15
-35.76
-34.97
-32.13
-27.86
-22.92
-18.01
-13.71
-10.34
-8.01
-6.63
-6.05
-6.15
-6.97
-8.70
-11.58
-15.76
-21.11
-27.16
-33.21
-38.52
-42.56
-45.14
-46.39
-46.67
-46.33
-45.64
-44.73
-43.68
-42.57
-41.59
-40.96
-40.84
-41.33
-42.39
-43.97
-45.91
-47.96
-49.61
-50.07
-48.42
-43.88
-36.14
-25.57
-13.16
-0.16
12.21
23.12
32.09
38.92
43.51
45.84
45.99
44.21
40.92
36.66
31.91
27.03
22.19
17.52
13.12
9.18
5.88
3.37
1.64
0.49
-0.43
-1.56
-3.23
-5.61
-8.62
-11.97
-15.32
-18.44
-21.23
-23.84
-26.56
-29.67
-33.36
-37.52
-41.64
-44.84
-46.08
-44.42
-39.39
-31.19
-20.65
-8.96
2.64
13.16
22.01
28.88
33.68
36.38
37.03
35.75
32.83
28.69
23.84
18.83
14.12
9.98
6.60
3.98
2.08
0.84
0.17
-0.07
-0.13
-0.34
-1.00
-2.29
-4.18
-6.49
-8.96
-11.47
-14.06
-16.95
-20.38
-24.54
-29.44
-34.80
-39.99
-44.08
-45.97
-44.65
-39.52
-30.68
-18.96
-5.67
7.67
19.80
29.88
37.51
42.60
45.19
45.45
43.64
40.17
35.55
30.34
24.95
19.70
14.80
10.45
6.88
4.28
2.69
1.95
1.72
1.59
1.25
0.55
-0.50
-1.87
-3.53
-5.53
-7.91
-10.71
-13.91
-17.58
-21.84
-26.79
-32.33
-37.89
-42.43
-44.63
-43.26
-37.64
-27.92
-15.04
-0.46
14.22
27.66
38.92
47.44
52.96
55.46
55.10
52.30
47.71
42.10
36.21
30.62
25.65
21.40
17.80
14.71
11.99
9.53
7.23
4.99
2.72
0.33
-2.22
-4.95
-7.77
-10.58
-13.29
-15.84
-18.32
-20.90
-23.84
-27.45
-31.95
-37.28
-42.94
-47.91
-50.79
-50.21
-45.29
-36.01
-23.30
-8.72
5.97
19.34
30.46
38.96
44.74
47.89
48.58
47.09
43.84
39.34
34.15
28.77
23.63
19.08
15.42
12.89
11.62
11.60
12.59
14.19
15.91
17.25
17.91
17.79
17.05
15.96
14.76
13.62
12.54
11.47
10.34
9.08
7.61
5.85
3.75
1.40
-0.95
-2.97
-4.48
-5.58
-6.62
-7.77
-8.65
-8.08
-4.37
3.93
17.20
34.30
52.69
69.17
80.79
85.66
83.20
74.09
59.94
42.95
25.45
9.54
-3.38
-12.82
-19.25
-23.81
-27.74
-31.91
-36.54
-41.31
-45.56
-48.67
-50.28
-50.42
-49.49
-48.26
-47.72
-48.92
-52.64
-58.99
-67.20
-75.54
-81.70
-83.42
-79.27
-69.10
-54.29
-37.30
-21.02
-7.90
0.56
4.10
3.40
-0.30
-5.72
-11.80
-17.87
-23.46
-28.23
-31.94
-34.42
-35.74
-36.21
-36.26
-36.36
-36.77
-37.43
-37.92
-37.52
-35.33
-30.65
-23.17
-13.28
-1.98
9.28
18.94
25.71
28.76
27.78
22.96
14.91
4.66
-6.41
-16.69
-24.65
-29.17
-29.92
-27.49
-23.17
-18.68
-15.65
-15.17
-17.57
-22.36
-28.42
-34.40
-39.01
-41.36
-41.06
-38.22
-33.34
-27.16
-20.49
-14.05
-8.35
-3.59
0.29
3.56
6.43
8.98
11.00
12.11
11.91
10.16
6.83
2.09
-3.79
-10.68
-18.55
-27.49
-37.54
-48.46
-59.64
-69.99
-78.02
-82.12
-80.94
-73.76
-60.80
-43.24
-22.97
-2.12
17.44
34.38
48.01
58.05
64.51
67.58
67.68
65.52
62.01
58.07
54.36
51.11
48.19
45.38
42.54
39.79
37.33
35.28
33.47
31.54
29.07
25.79
21.73
17.12
12.25
7.32
2.31
-2.98
-8.87
-15.70
-23.69
-32.76
-42.41
-51.60
-58.79
-62.28
-60.63
-53.21
-40.46
-23.87
-5.62
11.97
27.03
38.39
45.67
49.06
49.07
46.32
41.50
35.34
28.61
22.06
16.32
11.78
8.54
6.50
5.38
4.91
4.79
4.70
4.20
2.79
-0.03
-4.53
-10.63
-17.92
-25.73
-33.45
-40.79
-47.82
-55.04
-63.14
-72.82
-84.38
-97.55
-111.14
-123.00
-130.28
-130.11
-120.47
-100.95
-73.14
-40.17
-5.91
26.13
53.55
75.29
91.35
102.28
108.72
111.26
110.53
107.31
102.56
97.25
92.13
87.58
83.61
80.03
76.66
73.48
70.62
68.22
66.29
64.52
62.39
59.33
54.91
49.10
42.21
34.81
27.47
20.51
13.86
7.07
-0.50
-9.41
-19.84
-31.31
-42.62
-51.96
-57.29
-56.91
-50.01
-36.89
-18.96
1.70
22.88
42.70
59.82
73.44
83.13
88.80
90.58
88.93
84.58
78.44
71.42
64.27
57.49
51.31
45.84
41.10
37.15
34.05
31.82
30.32
29.25
28.12
26.39
23.59
19.50
14.25
8.29
2.22
-3.47
-8.52
-13.10
-17.67
-22.85
-29.18
-36.84
-45.41
-53.81
-60.35
-63.10
-60.46
-51.68
-37.18
-18.54
1.99
22.06
39.80
54.11
64.56
71.20
74.24
74.04
71.04
65.94
59.61
53.00
46.88
41.69
37.47
34.05
31.20
28.86
27.14
26.14
25.86
25.97
25.89
24.98
22.71
18.91
13.80
7.83
1.57
-4.52
-10.25
-15.69
-21.22
-27.33
-34.46
-42.73
-51.70
-60.27
-66.85
-69.72
-67.65
-60.25
-48.19
-33.03
-16.74
-1.19
12.17
22.46
29.29
32.65
32.79
30.32
26.13
21.35
17.09
14.13
12.71
12.58
13.11
13.68
13.90
13.77
13.53
13.49
13.81
14.40
14.95
15.11
14.64
13.48
11.72
9.49
6.81
3.55
-0.48
-5.51
-11.65
-18.82
-26.74
-34.83
-42.23
-47.83
-50.36
-48.79
-42.63
-32.16
-18.53
-3.43
11.28
24.07
33.93
40.45
43.61
43.64
40.99
36.23
30.13
23.54
17.25
11.79
7.36
3.90
1.18
-0.97
-2.63
-3.77
-4.43
-4.76
-5.11
-5.88
-7.44
-9.93
-13.21
-16.97
-20.76
-24.28
-27.45
-30.52
-33.93
-38.24
-43.81
-50.61
-57.98
-64.65
-68.92
-69.10
-64.03
-53.56
-38.72
-21.45
-4.02
11.68
24.59
34.57
42.03
47.49
51.14
52.83
52.25
49.31
44.47
38.74
33.60
30.72
31.59
37.16
47.52
61.50
76.69
89.80
97.50
97.50
89.34
74.62
56.37
38.09
22.67
11.95
6.72
7.08
12.64
22.49
34.84
46.99
55.61
57.46
50.13
32.69
5.83
-28.24
-65.88
-102.34
-132.29
-150.91
-155.29
-145.60
-125.30
-99.95
-75.19
-54.77
-39.63
-28.53
-19.68
-12.22
-6.76
-4.63
-6.55
-11.64
-17.53
-21.45
-21.52
-17.65
-11.32
-4.89
-0.58
0.07
-3.58
-11.49
-23.13
-37.62
-53.84
-70.55
-86.51
-100.59
-111.81
-119.27
-122.21
-120.28
-113.74
-103.74
-92.01
-80.36
-69.92
-60.64
-51.36
-40.46
-26.70
-10.00
8.39
26.25
41.05
50.86
54.92
54.05
50.63
48.16
50.38
59.89
76.97
98.86
120.37
135.55
139.95
132.28
114.63
91.26
66.66
43.95
24.50
8.58
-3.47
-10.80
-12.30
-7.68
1.74
13.01
22.63
27.92
28.24
25.08
21.38
20.14
23.22
30.83
41.64
53.60
64.67
73.37
78.92
80.96
79.33
73.95
64.92
52.80
38.66
23.97
10.29
-1.13
-9.56
-14.78
-17.00
-16.62
-14.02
-9.58
-3.73
2.96
9.68
15.44
19.22
20.31
18.45
13.93
7.32
-0.75
-9.98
-20.36
-32.04
-44.85
-57.95
-69.78
-78.33
-81.75
-79.00
-70.30
-57.14
-41.93
-27.39
-15.85
-8.82
-6.80
-9.47
-15.89
-24.86
-35.13
-45.51
-54.90
-62.44
-67.59
-70.22
-70.66
-69.56
-67.70
-65.77
-64.16
-62.88
-61.67
-60.12
-57.99
-55.31
-52.37
-49.66
-47.65
-46.64
-46.71
-47.92
-50.20
-53.47
-57.46
-61.51
-64.60
-65.47
-62.96
-56.38
-45.76
-31.79
-15.67
1.19
17.43
31.92
43.75
52.34
57.45
59.16
57.94
54.48
49.58
44.02
38.42
33.23
28.74
25.11
22.36
20.35
18.81
17.42
15.88
14.07
12.01
9.86
7.75
5.69
3.52
0.98
-2.29
-6.58
-12.06
-18.65
-25.81
-32.54
-37.44
-39.07
-36.35
-28.96
-17.54
-3.48
11.46
25.61
37.73
47.06
53.30
56.45
56.73
54.55
50.51
45.34
39.76
34.41
29.65
25.67
22.46
19.98
18.16
16.98
16.39
16.30
16.48
16.60
16.33
15.40
13.68
11.16
7.93
4.08
-0.45
-5.86
-12.38
-20.12
-28.79
-37.59
-45.19
-50.06
-50.81
-46.70
-37.89
-25.43
-11.00
3.53
16.53
26.93
34.23
38.40
39.72
38.55
35.34
30.55
24.71
18.47
12.49
7.36
3.44
0.79
-0.85
-1.95
-2.98
-4.28
-5.93
-7.87
-9.98
-12.22
-14.62
-17.29
-20.30
-23.68
-27.48
-31.80
-36.67
-41.98
-47.27
-51.68
-54.06
-53.34
-48.84
-40.52
-29.10
-15.84
-2.24
10.23
20.46
27.83
32.20
33.79
33.10
30.62
26.87
22.23
17.07
11.75
6.65
2.15
-1.43
-3.86
-5.09
-5.24
-4.64
-3.71
-2.93
-2.69
-3.14
-4.19
-5.58
-6.97
-8.17
-9.24
-10.45
-12.23
-15.00
-19.03
-24.27
-30.32
-36.30
-40.98
-43.00
-41.17
-34.90
-24.46
-10.93
3.99
18.47
30.94
40.41
46.51
49.38
49.48
47.35
43.56
38.62
33.05
27.34
21.97
17.32
13.63
10.97
9.27
8.38
8.10
8.24
8.63
9.04
9.25
9.04
8.27
6.97
5.29
3.49
1.77
0.13
-1.64
-4.02
-7.44
-12.06
-17.44
-22.42
-25.31
-24.26
-17.85
-5.59
11.74
32.26
53.40
72.54
87.75
98.08
103.65
105.31
104.23
101.55
98.22
95.09
92.98
92.55
94.10
97.35
101.40
104.87
106.25
104.05
96.93
83.77
63.93
37.61
6.30
-27.13
-58.74
-84.34
-100.60
-105.85
-100.45
-86.56
-67.39
-46.44
-26.69
-10.08
2.64
11.88
18.66
24.07
28.69
32.28
33.77
31.70
24.84
12.82
-3.61
-22.76
-42.59
-61.40
-78.21
-92.67
-104.64
-113.92
-120.10
-122.84
-122.11
-118.35
-112.22
-104.35
-95.14
-84.85
-73.85
-62.78
-52.52
-43.89
-37.26
-32.49
-29.04
-26.27
-23.64
-20.87
-17.85
-14.67
-11.61
-9.09
-7.60
-7.44
-8.43
-9.78
-10.25
-8.65
-4.45
1.81
8.46
13.23
14.12
10.20
2.13
-8.06
-17.51
-23.64
-24.93
-21.36
-14.26
-5.67
2.48
8.89
13.14
15.47
16.37
16.24
15.28
13.51
10.92
7.42
2.80
-3.25
-10.93
-20.04
-29.80
-39.03
-46.61
-52.23
-56.66
-61.60
-68.83
-79.19
-92.02
-105.13
-115.69
-121.33
-120.92
-114.73
-103.92
-89.77
-73.08
-54.19
-33.35
-11.27
10.70
30.82
47.49
59.90
68.16
73.06
75.54
76.31
75.64
73.60
70.31
66.19
61.96
58.39
56.04
55.01
54.95
55.13
54.75
53.22
50.28
46.08
41.11
35.87
30.69
25.49
19.82
13.05
4.87
-4.43
-13.65
-21.00
-24.60
-23.18
-16.63
-6.10
6.31
18.24
27.67
33.41
35.08
32.89
27.26
18.66
7.47
-5.83
-20.57
-35.98
-51.20
-65.48
-78.15
-88.59
-96.16
-100.28
-100.67
-97.42
-90.98
-81.87
-70.45
-56.78
-40.86
-23.19
-5.11
11.13
22.95
28.35
26.59
18.49
6.06
-8.15
-21.70
-32.61
-39.40
-41.08
-37.12
-27.60
-13.41
3.84
22.07
39.17
53.50
64.26
71.47
75.77
78.00
78.88
78.73
77.53
75.09
71.28
66.24
60.39
54.37
48.77
43.97
40.09
36.98
34.32
31.82
29.24
26.45
23.46
20.32
17.10
13.80
10.38
6.69
2.56
-2.17
-7.57
-13.58
-19.93
-26.04
-31.14
-34.24
-34.45
-31.17
-24.40
-14.75
-3.37
8.37
19.20
28.24
35.07
39.62
42.10
42.79
42.03
40.17
37.58
34.60
31.55
28.65
26.05
23.81
21.97
20.52
19.44
18.64
18.03
17.52
17.00
16.36
15.51
14.37
12.87
10.94
8.55
5.62
2.10
-2.01
-6.59
-11.32
-15.65
-18.85
-20.17
-18.99
-15.05
-8.57
-0.22
8.98
17.89
25.52
31.22
34.77
36.28
36.07
34.49
31.83
28.39
24.47
20.47
16.79
13.73
11.45
9.89
8.80
7.90
6.93
5.74
4.30
2.67
0.95
-0.78
-2.50
-4.22
-5.97
-7.80
-9.81
-12.10
-14.82
-18.06
-21.77
-25.61
-28.96
-31.03
-31.03
-28.46
-23.25
-15.75
-6.74
2.83
11.97
19.78
25.63
29.16
30.38
29.61
27.42
24.40
21.08
17.79
14.75
12.07
9.86
8.21
7.12
6.50
6.15
5.86
5.48
4.99
4.47
4.02
3.65
3.28
2.74
1.89
0.66
-1.00
-3.17
-6.00
-9.63
-14.11
-19.13
-24.00
-27.76
-29.41
-28.27
-24.26
-17.91
-10.24
-2.40
4.61
10.15
13.96
16.03
16.55
15.74
13.83
11.08
7.76
4.15
0.52
-2.92
-6.01
-8.60
-10.57
-11.88
-12.53
-12.67
-12.54
-12.40
-12.47
-12.87
-13.54
-14.37
-15.22
-16.00
-16.73
-17.55
-18.70
-20.40
-22.80
-25.91
-29.48
-33.02
-35.79
-36.91
-35.61
-31.40
-24.33
-14.98
-4.36
6.28
15.76
23.21
28.19
30.65
30.89
29.34
26.51
22.86
18.83
14.79
11.07
7.85
5.26
3.29
1.88
0.93
0.38
0.12
0.02
-0.08
-0.36
-0.96
-1.97
-3.41
-5.24
-7.40
-9.79
-12.34
-15.02
-17.89
-21.07
-24.64
-28.50
-32.22
-35.02
-35.95
-34.20
-29.35
-21.60
-11.71
-0.85
9.72
18.86
25.74
29.94
31.45
30.60
27.91
23.95
19.32
14.52
10.03
6.21
3.33
1.48
0.55
0.26
0.28
0.32
0.21
-0.13
-0.71
-1.54
-2.64
-4.04
-5.69
-7.54
-9.50
-11.54
-13.76
-16.31
-19.41
-23.23
-27.76
-32.69
-37.41
-41.00
-42.44
-40.90
-35.96
-27.85
-17.40
-5.88
5.36
15.14
22.69
27.65
30.01
29.99
27.96
24.40
19.89
15.02
10.31
6.17
2.80
0.24
-1.54
-2.63
-3.09
-3.01
-2.51
-1.80
-1.18
-0.95
-1.37
-2.52
-4.33
-6.54
-8.89
-11.18
-13.43
-15.90
-18.99
-23.03
-28.08
-33.74
-39.15
-43.15
-44.58
-42.56
-36.74
-27.35
-15.14
-1.21
13.11
26.51
37.86
46.31
51.50
53.49
52.74
49.99
46.04
41.68
37.53
34.03
31.33
29.42
28.12
27.26
26.78
26.72
27.18
28.12
29.29
30.28
30.66
30.19
28.92
27.13
25.24
23.62
22.47
21.86
21.67
21.62
21.26
20.06
17.57
13.73
9.02
4.48
1.35
0.51
2.11
5.34
8.79
10.99
10.99
8.69
4.74
0.12
-4.26
-7.88
-10.59
-12.46
-13.56
-13.88
-13.30
-11.75
-9.29
-6.24
-3.04
-0.17
1.98
3.21
3.54
3.08
1.96
0.28
-1.97
-4.80
-8.16
-11.96
-16.08
-20.43
-25.01
-29.93
-35.24
-40.79
-46.07
-50.25
-52.38
-51.71
-48.09
-42.03
-34.58
-26.95
-20.10
-14.44
-9.86
-5.99
-2.60
0.12
1.55
0.91
-2.28
-7.83
-14.65
-21.04
-25.27
-26.26
-24.05
-19.77
-15.25
-12.43
-12.90
-17.61
-26.63
-38.95
-52.25
-63.05
-67.47
-62.63
-47.90
-25.64
-0.63
21.60
36.62
42.49
39.98
31.77
21.22
11.39
4.47
1.71
3.46
9.22
17.71
26.95
34.64
38.62
37.36
30.29
17.94
1.64
-16.87
-35.99
-54.71
-72.73
-90.32
-107.76
-124.90
-140.86
-154.22
-163.48
-167.61
-166.45
-160.71
-151.66
-140.64
-128.77
-116.78
-105.09
-94.04
-83.99
-75.44
-68.92
-64.84
-63.41
-64.45
-67.28
-70.67
-72.91
-72.06
-66.43
-55.06
-38.11
-16.82
6.75
30.27
51.72
69.72
83.56
93.09
98.43
99.95
98.19
93.89
88.00
81.48
75.13
69.44
64.57
60.41
56.81
53.66
50.91
48.53
46.44
44.45
42.30
39.75
36.68
33.09
29.00
24.41
19.16
12.99
5.64
-2.94
-12.28
-21.32
-28.46
-31.95
-30.41
-23.32
-11.28
4.22
21.15
37.59
52.11
63.89
72.63
78.29
80.96
80.79
78.06
73.29
67.17
60.53
54.09
48.40
43.73
40.08
37.26
35.02
33.10
31.27
29.40
27.38
25.19
22.78
20.07
16.93
13.18
8.63
