1554255992.00
64.000000
-0.00
-0.00
-0.00
-0.00
-0.00
-0.00
-0.00
-0.00
-0.00
-0.00
0.00
0.01
0.01
-0.00
-0.03
-0.05
-0.05
0.00
0.13
0.36
0.66
1.01
1.37
1.72
2.06
2.40
2.79
3.24
3.80
4.42
5.06
5.66
6.20
6.68
7.15
7.68
8.31
9.14
10.09
11.04
11.88
12.56
13.14
13.76
14.65
15.96
17.91
20.32
22.90
25.38
27.58
29.57
31.68
34.32
37.81
42.54
48.15
54.10
59.83
64.97
69.58
74.14
79.34
85.71
93.76
103.00
112.62
121.73
129.77
136.75
143.30
150.75
157.77
166.64
177.95
191.79
206.97
220.57
228.25
225.36
208.53
176.87
132.76
80.05
23.07
-34.94
-92.44
-149.16
-205.23
-260.37
-313.74
-363.87
-409.83
-450.91
-486.50
-515.74
-537.23
-549.22
-549.96
-538.37
-514.21
-478.67
-433.88
-382.45
-327.02
-269.84
-212.63
-156.66
-102.95
-52.37
-5.90
35.58
71.43
101.35
125.50
144.38
158.69
169.15
176.37
180.75
182.57
182.07
179.51
175.23
169.65
163.18
156.15
148.81
141.30
133.69
126.02
118.33
110.69
103.16
95.80
88.68
81.83
75.25
68.95
62.95
57.25
51.86
46.78
42.03
37.59
33.45
29.61
26.07
22.81
19.83
17.11
14.67
12.48
10.54
8.83
7.35
6.07
4.97
4.05
3.27
2.62
2.09
1.65
1.30
1.01
0.79
0.61
0.47
0.37
0.28
0.22
0.18
0.14
0.12
0.11
0.11
0.11
0.12
0.14
0.16
0.19
0.22
0.25
0.30
0.36
0.43
0.50
0.54
0.56
0.52
0.44
0.35
0.29
0.28
0.33
0.43
0.55
0.65
0.71
0.73
0.75
0.81
0.94
1.14
1.39
1.64
1.81
1.89
1.90
1.90
2.00
2.30
2.78
3.38
3.93
4.27
4.32
4.13
3.89
3.86
4.25
5.09
6.21
7.25
7.86
7.86
7.36
6.70
6.40
6.82
8.03
9.70
11.19
11.84
11.22
9.37
6.69
3.75
0.98
-1.55
-4.16
-7.35
-11.64
-17.39
-24.80
-33.93
-44.38
-54.83
-62.89
-65.65
-60.68
-47.46
-27.93
-6.09
13.46
27.22
33.81
33.98
29.59
22.53
14.09
5.05
-3.76
-11.26
-16.24
-17.93
-16.49
-13.05
-9.21
-6.37
-5.26
-5.62
-6.54
-6.85
-5.66
-2.73
1.51
6.16
10.24
13.16
14.90
15.88
16.69
17.71
18.91
19.89
20.16
19.36
17.46
14.79
11.81
8.97
6.53
4.56
3.01
1.80
0.86
0.07
-0.67
-1.49
-2.48
-3.65
-4.87
-5.98
-6.79
-7.22
-7.42
-7.54
-7.76
-8.17
-8.83
-9.73
-10.88
-12.26
-13.93
-15.95
-18.35
-21.22
-24.67
-28.75
-33.31
-38.00
-42.12
-44.81
-45.25
-42.97
-38.05
-31.05
-22.80
-14.08
-5.42
2.93
10.88
18.35
25.15
30.99
35.65
39.07
41.42
42.99
44.08
44.88
45.42
45.58
45.21
44.19
42.51
40.38
38.10
36.04
34.51
33.70
33.64
34.23
35.18
36.09
36.57
36.36
35.48
34.23
33.07
32.31
31.97
31.70
31.00
29.48
27.15
24.45
22.03
20.47
19.99
20.41
21.33
22.36
23.30
24.16
25.00
25.70
25.87
25.07
23.00
19.71
15.56
10.93
5.85
-0.06
-7.41
-16.58
-27.24
-38.39
-48.62
-56.70
-62.00
-64.71
-65.63
-65.74
-65.91
-66.63
-68.05
-70.04
-72.32
-74.50
-76.18
-76.92
-76.30
-74.00
-69.88
-64.03
-56.73
-48.49
-39.96
-31.88
-24.95
-19.69
-16.32
-14.71
-14.48
-15.18
-16.52
-18.38
-20.69
-23.14
-25.08
-25.54
-23.64
-18.96
-11.82
-3.17
5.79
14.02
21.06
27.03
32.41
37.65
42.77
47.36
50.58
51.63
50.05
46.01
40.28
33.93
27.94
22.89
18.85
15.57
12.67
9.97
7.51
5.42
3.86
2.85
2.41
2.63
3.85
6.46
10.77
16.68
23.58
30.48
36.31
40.16
41.46
39.99
35.75
28.94
19.97
9.47
-1.70
-12.65
-22.60
-30.99
-37.46
-41.74
-43.65
-43.09
-40.28
-35.86
-30.81
-26.18
-22.76
-20.73
-19.65
-18.66
-16.81
-13.39
-8.08
-1.05
7.21
16.02
24.74
32.91
40.34
47.06
53.09
58.33
62.45
65.01
65.81
65.11
63.65
62.39
61.97
62.37
62.90
62.64
60.97
57.88
53.83
49.44
45.04
40.64
36.07
31.22
26.10
20.65
14.59
7.44
-1.27
-11.54
-22.70
-33.48
-42.42
-48.41
-50.94
-50.25
-47.14
-42.68
-37.83
-33.26
-29.17
-25.49
-22.01
-18.64
-15.52
-12.94
-11.09
-9.89
-8.83
-7.20
-4.41
-0.34
4.48
9.06
12.36
13.77
13.43
12.10
10.72
9.84
9.30
8.31
6.01
2.01
-3.30
-8.88
-13.66
-16.95
-18.78
-19.63
-20.01
-20.23
-20.22
-19.86
-19.21
-18.71
-19.05
-20.91
-24.64
-30.05
-36.50
-43.12
-48.98
-53.35
-55.75
-55.98
-54.13
-50.61
-46.02
-41.06
-36.27
-31.94
-28.00
-24.19
-20.13
-15.50
-10.01
-3.47
4.13
12.51
20.88
27.99
32.45
33.21
30.14
24.15
16.90
10.15
4.98
1.50
-1.04
-3.63
-6.95
-11.04
-15.41
-19.49
-23.00
-26.09
-29.11
-32.33
-35.69
-38.82
-41.24
-42.69
-43.28
-43.44
-43.80
-44.92
-47.15
-50.38
-54.10
-57.36
-59.00
-57.95
-53.51
-45.56
-34.56
-21.39
-7.07
7.38
21.06
33.18
43.00
49.92
53.70
54.51
52.99
49.99
46.30
42.45
38.70
35.16
31.99
29.44
27.79
27.01
26.67
26.00
24.10
20.39
14.83
8.01
0.99
-4.99
-8.83
-9.95
-8.37
-4.75
-0.21
4.07
7.19
8.73
8.73
7.50
5.26
2.12
-1.90
-6.67
-11.78
-16.54
-20.18
-22.10
-22.09
-20.27
-16.93
-12.40
-6.96
-0.89
5.43
11.57
17.08
21.69
25.34
28.18
30.37
32.08
33.40
34.49
35.59
37.09
39.31
42.38
46.12
50.08
53.75
56.75
58.92
60.28
60.92
60.90
60.21
58.85
56.80
54.04
50.49
46.11
40.90
35.09
29.07
23.33
18.26
13.92
9.98
5.82
0.86
-5.24
-12.37
-20.13
-27.98
-35.49
-42.35
-48.31
-53.03
-55.98
-56.62
-54.65
-50.26
-44.17
-37.40
-30.87
-25.03
-19.78
-14.74
-9.59
-4.41
0.26
3.70
5.37
5.25
3.85
1.99
0.35
-0.87
-1.96
-3.49
-5.86
-9.04
-12.53
-15.56
-17.54
-18.29
-18.14
-17.70
-17.56
-18.05
-19.08
-20.28
-21.18
-21.40
-20.83
-19.66
-18.29
-17.14
-16.47
-16.27
-16.38
-16.67
-17.23
-18.35
-20.33
-23.12
-26.23
-28.75
-29.70
-28.42
-24.83
-19.38
-12.79
-5.71
1.46
8.63
15.83
23.08
30.28
37.19
43.53
48.99
53.32
56.36
58.08
58.64
58.25
57.21
55.64
53.57
50.86
47.40
43.19
38.40
33.26
27.96
22.57
17.08
11.49
5.91
0.56
-4.38
-8.93
-13.32
-17.83
-22.61
-27.49
-32.07
-35.91
-38.85
-41.08
-43.12
-45.53
-48.73
-52.86
-57.75
-62.97
-67.80
-71.37
-72.80
-71.53
-67.53
-61.36
-54.01
-46.51
-39.54
-33.31
-27.67
-22.40
-17.51
-13.28
-10.12
-8.28
-7.60
-7.44
-6.88
-4.97
-1.06
4.98
12.70
21.26
29.65
36.92
42.35
45.66
46.99
46.95
46.36
45.99
46.16
46.59
46.44
44.71
40.72
34.37
26.19
16.97
7.42
-2.07
-11.37
-20.46
-29.19
-37.32
-44.61
-50.95
-56.38
-61.00
-64.75
-67.23
-67.81
-65.74
-60.50
-52.07
-41.06
-28.62
-16.16
-4.94
4.19
10.99
15.71
18.84
20.89
22.19
22.95
23.30
23.43
23.46
23.48
23.41
23.04
22.16
20.65
18.58
16.13
13.49
10.76
7.90
4.80
1.47
-1.97
-5.25
-8.05
-10.15
-11.48
-12.14
-12.37
-12.46
-12.71
-13.36
-14.60
-16.43
-18.65
-20.91
-22.73
-23.68
-23.44
-21.95
-19.26
-15.55
-11.00
-5.74
0.08
6.24
12.39
18.12
22.94
26.51
28.61
29.31
28.83
27.56
25.96
24.44
23.31
22.66
22.42
22.35
22.13
21.49
20.22
18.33
15.97
13.43
10.98
8.80
6.86
5.00
3.05
0.92
-1.30
-3.50
-5.64
-7.87
-10.50
-13.83
-17.98
-22.74
-27.65
-32.10
-35.53
-37.54
-37.87
-36.47
-33.43
-29.04
-23.67
-17.77
-11.73
-5.84
-0.34
4.58
8.73
11.98
14.26
15.69
16.44
16.69
16.57
16.09
15.24
14.01
12.48
10.82
9.19
7.70
6.37
5.16
3.97
2.76
1.45
0.02
-1.55
-3.19
-4.76
-6.07
-6.95
-7.39
-7.58
-7.89
-8.74
-10.47
-13.20
-16.89
-21.28
-26.00
-30.53
-34.26
-36.48
-36.57
-34.22
-29.50
-22.96
-15.36
-7.50
0.04
6.93
13.05
18.33
22.66
25.97
28.23
29.56
30.25
30.63
31.01
31.58
32.36
33.29
34.22
34.99
35.39
35.23
34.34
32.63
30.19
27.20
23.96
20.75
17.76
15.04
12.59
10.33
8.19
6.07
3.87
1.52
-1.04
-3.80
-6.75
-9.89
-13.30
-17.08
-21.35
-26.04
-30.86
-35.26
-38.56
-40.14
-39.61
-36.90
-32.26
-26.14
-19.00
-11.26
-3.23
4.82
12.55
19.58
25.51
30.07
33.22
35.14
36.14
36.53
36.46
36.02
35.23
34.18
33.08
32.10
31.36
30.79
30.16
29.17
27.64
25.53
23.04
20.44
17.97
15.77
13.78
11.86
9.82
7.55
5.00
2.22
-0.62
-3.42
-6.05
-8.46
-10.67
-12.75
-14.84
-17.15
-19.89
-23.24
-27.23
-31.69
-36.20
-40.13
-42.79
-43.53
-41.91
-37.80
-31.45
-23.44
-14.57
-5.68
2.53
9.62
15.46
20.15
23.89
26.85
29.12
30.72
31.70
32.14
32.21
32.04
31.70
31.18
30.40
29.31
27.89
26.20
24.30
22.22
19.98
17.54
14.92
12.22
9.58
7.17
5.13
3.42
1.88
0.32
-1.40
-3.21
-4.92
-6.33
-7.41
-8.36
-9.57
-11.40
-13.92
-16.89
-19.83
-22.33
-24.31
-26.07
-28.17
-31.07
-34.86
-39.04
-42.58
-44.09
-42.08
-35.19
-22.60
-4.34
18.31
42.65
64.93
81.11
88.13
84.99
73.30
56.89
40.59
28.86
24.58
28.58
39.78
55.77
73.54
90.12
103.14
111.21
114.07
112.54
108.15
102.67
97.72
94.35
92.89
92.87
93.05
91.85
87.80
80.42
70.61
60.71
53.65
51.81
55.89
64.61
75.23
84.63
90.43
91.48
87.74
79.77
68.28
53.99
37.76
20.83
4.58
-9.78
-21.75
-31.66
-40.42
-48.97
-57.72
-66.45
-74.57
-81.56
-87.41
-92.64
-98.08
-104.52
-112.44
-122.02
-133.21
-145.76
-159.16
-172.44
-184.07
-192.06
-194.39
-189.54
-176.97
-157.38
-132.55
-104.89
-76.88
-50.56
-27.21
-7.33
9.21
22.84
34.05
43.14
50.21
55.17
57.90
58.44
57.09
54.45
51.35
48.58
46.69
45.77
45.37
44.71
42.97
39.70
35.06
29.92
25.50
22.92
22.59
24.01
25.83
26.55
25.28
22.34
19.17
17.70
19.28
23.68
28.97
32.03
29.52
18.82
-1.50
-31.18
-67.75
-106.12
-138.85
-157.64
-156.18
-133.02
-92.99
-46.12
-4.02
24.37
35.75
32.65
20.97
6.68
-6.54
-17.66
-26.92
-34.14
-38.02
-36.89
-30.00
-18.55
-5.55
5.55
12.63
16.01
18.36
23.43
34.28
52.05
75.67
102.56
129.58
153.71
172.31
183.03
183.90
173.86
153.41
125.04
92.93
61.90
35.93
17.01
4.80
-2.87
-8.80
-15.29
-23.54
-33.76
-45.63
-58.91
-73.67
-90.13
-108.45
-128.47
-149.85
-172.26
-195.42
-218.75
-240.83
-259.11
-270.24
-271.06
-259.93
-237.72
-207.74
-174.76
-143.47
-117.06
-96.74
-81.96
-71.32
-63.41
-57.35
-52.73
-49.42
-47.30
-46.20
-46.06
-46.99
-49.25
-53.01
-58.22
-64.40
-70.76
-76.46
-80.80
-83.39
-84.13
-83.04
-80.18
-75.51
-68.99
-60.57
-50.32
-38.43
-25.28
-11.46
2.25
14.97
25.95
34.67
41.05
45.45
48.48
50.83
52.97
55.02
56.90
58.32
59.05
58.98
58.19
56.87
55.26
53.61
52.11
50.83
49.73
48.65
47.34
45.61
43.27
40.28
36.64
32.32
27.21
21.15
14.02
5.81
-3.26
-12.80
-22.31
-31.22
-39.04
-45.32
-49.73
-52.08
-52.43
-51.08
-48.59
-45.60
-42.66
-40.07
-37.68
-35.05
-31.59
-26.85
-20.62
-13.03
-4.43
4.76
14.16
23.49
32.58
41.26
49.36
56.64
62.82
67.63
70.89
72.57
72.79
71.84
70.03
67.65
65.00
62.36
60.06
58.40
57.60
57.60
58.06
58.44
58.21
57.01
54.79
51.78
48.30
44.64
40.97
37.32
33.68
30.03
26.39
22.76
19.11
15.38
11.48
7.38
3.12
-1.29
-5.84
-10.65
-15.91
-21.76
-28.10
-34.54
-40.37
-44.81
-47.13
-46.94
-44.16
-38.99
-31.80
-23.06
-13.27
-2.98
7.21
16.76
25.18
32.17
37.60
41.50
44.05
45.55
46.32
46.73
47.06
47.48
47.96
48.32
48.31
47.67
46.25
44.07
41.34
38.33
35.35
32.55
29.95
27.45
24.89
22.14
19.17
15.95
12.53
8.89
5.03
0.93
-3.36
-7.73
-12.10
-16.39
-20.71
-25.26
-30.29
-35.89
-41.89
-47.74
-52.66
-55.82
-56.52
-54.46
-49.68
-42.54
-33.56
-23.36
-12.51
-1.61
8.75
18.03
25.82
31.99
36.67
40.21
42.97
45.24
47.14
48.64
49.66
50.21
50.37
50.33
50.22
50.09
49.79
49.05
47.61
45.33
42.32
38.87
35.36
32.07
29.13
26.44
23.82
21.05
17.99
14.61
10.91
6.94
2.71
-1.72
-6.27
-10.82
-15.33
-19.86
-24.61
-29.78
-35.38
-41.13
-46.42
-50.43
-52.39
-51.79
-48.50
-42.80
-35.18
-26.19
-16.38
-6.23
3.78
13.13
21.36
28.10
33.18
36.69
38.88
40.10
40.69
41.10
41.65
42.39
43.13
43.58
43.51
42.80
41.43
39.46
37.16
34.75
32.34
29.92
27.43
24.93
22.60
20.65
19.25
18.79
19.41
20.71
21.88
22.04
20.75
18.07
14.44
10.34
7.20
5.91
6.09
6.35
5.15
1.81
-3.30
-9.12
-14.39
-15.64
-10.38
1.42
17.11
33.07
46.64
56.72
63.60
68.20
75.46
89.13
109.41
132.64
153.98
170.23
180.65
186.22
188.66
194.73
210.12
236.66
271.77
311.17
351.55
390.65
426.46
425.44
367.43
257.57
126.75
9.75
-74.48
-125.45
-153.72
-172.30
-191.06
-209.13
-221.80
-226.08
-223.98
-220.37
-218.65
-219.99
-221.98
-221.07
-211.13
-189.54
-159.07
-126.91
-100.34
-83.06
-74.82
-73.07
-75.17
-77.15
-76.92
-74.23
-71.51
-71.81
-77.04
-87.43
-101.82
-118.46
-134.43
-147.57
-157.24
-164.47
-170.53
-175.70
-178.91
-178.25
-171.85
-158.10
-136.48
-107.65
-73.42
-36.21
1.48
37.23
68.93
94.98
114.42
127.00
133.09
133.31
128.51
119.65
107.81
94.20
80.04
66.46
54.22
43.67
34.67
26.64
18.62
9.53
-1.61
-15.17
-30.66
-46.54
-60.48
-70.07
-73.66
-71.01
-63.36
-52.93
-42.10
-32.67
-25.58
-21.19
-19.66
-21.26
-26.17
-34.12
-44.02
-54.07
-62.30
-67.19
-68.24
-65.94
-61.31
-55.47
-49.29
-43.26
-37.63
-32.57
-28.17
-24.43
-21.27
-18.52
-16.05
-13.79
-11.85
-10.37
-9.58
-9.68
-10.94
-13.61
-17.84
-23.55
-30.30
-37.42
-44.13
-49.84
-54.40
-58.14
-61.71
-65.73
-70.49
-75.76
-80.87
-84.86
-86.82
-86.04
-82.11
-74.94
-64.72
-51.86
-36.94
-20.68
-3.81
12.91
28.80
43.23
55.72
65.96
73.90
79.80
84.09
87.31
89.87
91.93
93.45
94.26
94.27
93.55
92.29
90.68
88.76
86.40
83.35
79.38
74.45
68.70
62.40
55.74
48.74
41.35
33.47
25.13
16.54
8.04
-0.04
-7.45
-14.14
-20.21
-25.85
-31.32
-36.87
-42.76
-49.11
-55.79
-62.40
-68.25
-72.42
-74.07
-72.60
-67.91
-60.45
-51.06
-40.75
-30.41
-20.56
-11.36
-2.71
5.51
13.27
20.40
26.59
31.66
35.54
38.34
40.25
41.42
41.92
41.79
41.08
39.90
38.48
37.12
36.18
35.90
36.39
37.52
38.95
40.27
41.15
41.41
41.11
40.44
39.65
38.90
38.25
37.63
36.82
35.53
33.45
30.34
26.15
21.05
15.33
9.31
3.09
-3.50
-10.73
-18.79
-27.48
-36.07
-43.45
-48.46
-50.10
-47.91
-42.00
-33.03
-22.01
-10.02
2.01
13.45
23.96
33.46
42.00
49.52
55.81
60.58
63.64
65.02
64.96
63.85
62.12
60.17
58.15
55.85
52.99
49.32
44.91
39.85
34.40
28.90
23.75
19.18
14.80
10.06
4.45
-2.04
-9.41
-17.19
-24.54
-30.24
-33.23
-33.59
-32.13
-30.18
-28.91
-30.01
-34.74
-43.57
-55.77
-69.65
-83.69
-96.03
-104.81
-108.11
-105.77
-98.95
-89.91
-81.06
-70.02
-56.48
-41.62
-31.19
-25.26
-23.16
-22.92
-23.93
-25.69
-27.46
-29.03
-29.95
-29.80
-27.75
-24.00
-18.96
-13.01
-6.07
1.98
10.41
18.27
24.60
29.18
31.73
32.44
31.92
31.14
30.99
31.56
32.60
33.69
34.74
35.49
35.80
35.61
35.06
34.36
33.47
32.37
31.05
29.69
28.28
26.76
25.09
23.35
21.70
20.26
19.10
18.24
17.73
17.56
17.75
18.29
19.07
19.78
20.00
19.36
17.74
15.38
12.75
10.30
8.25
6.43
4.47
1.95
-1.34
-5.42
-10.10
-15.15
-20.33
-25.34
-29.81
-33.30
-35.32
-35.51
-33.74
-30.14
-25.17
-19.48
-13.76
-8.59
-4.30
-0.91
1.79
4.02
5.97
7.63
8.93
9.84
10.44
10.94
11.55
12.40
13.42
14.45
15.31
15.92
16.27
16.44
16.49
16.38
16.07
15.45
14.47
13.11
11.43
9.46
7.26
4.93
2.56
0.32
-1.68
-3.40
-4.91
-6.37
-7.97
-9.75
-11.67
-13.59
-15.37
-17.01
-18.64
-20.47
-22.65
-25.17
-27.89
-30.65
-33.37
-36.05
-38.82
-41.63
-44.25
-46.20
-46.89
-45.89
-43.00
-38.38
-32.44
-25.67
-18.54
-11.46
-4.74
1.33
6.50
10.61
13.60
15.55
16.69
17.35
17.91
18.69
19.82
21.23
22.67
23.78
24.26
23.99
23.06
21.75
20.46
19.41
18.73
18.41
18.28
18.01
17.40
16.42
15.39
14.89
15.41
17.27
20.55
25.05
30.45
36.45
42.92
49.89
57.47
65.48
73.68
81.73
89.13
95.07
98.70
99.45
97.37
93.18
87.41
80.83
74.04
66.97
58.66
47.69
33.11
15.09
-4.90
-25.70
-45.10
-60.43
-69.70
-72.97
-72.67
-72.83
-77.57
-89.64
-111.41
-141.66
-176.11
-209.73
-239.36
-264.57
-286.59
-306.56
-324.30
-340.74
-354.20
-360.76
-356.25
-338.47
-307.98
-267.50
-220.88
-156.09
-74.24
12.05
86.02
137.65
166.88
179.56
182.85
183.00
184.04
185.06
185.51
185.63
185.74
185.31
182.99
177.63
169.52
159.66
147.70
134.30
122.07
113.74
110.47
111.27
113.56
114.89
112.64
103.94
88.37
68.10
46.55
26.83
10.75
-1.69
-8.82
-11.19
-12.44
-16.63
-25.23
-36.41
-46.61
-52.64
-56.25
-57.34
-56.83
-55.91
-54.99
-53.64
-51.56
-49.30
-45.79
-41.73
-37.34
-33.14
-29.33
-25.65
-21.73
-17.50
-13.35
-9.81
-7.71
-6.98
-7.67
-9.58
-12.26
-15.16
-17.89
-20.30
-22.35
-24.20
-25.43
-25.62
-24.23
-20.71
-14.65
-6.00
4.86
17.16
29.62
41.11
50.52
57.18
61.04
62.64
62.81
62.32
61.62
60.70
59.43
57.70
55.60
53.43
51.51
50.02
48.88
47.86
46.60
44.93
42.83
40.45
38.00
35.64
33.50
31.55
29.72
27.85
25.84
23.66
21.40
19.18
17.11
15.10
12.91
10.18
6.59
2.05
-3.29
-9.10
-14.95
-20.52
-25.60
-30.08
-33.90
-36.93
-39.05
-40.07
-39.82
-38.22
-35.28
-31.24
-26.70
-22.72
-20.71
-22.06
-27.73
-37.74
-51.16
-66.32
-81.42
-94.99
-106.19
-114.67
-120.21
-122.47
-120.89
-115.10
-105.13
-91.75
-76.32
-60.53
-45.91
-33.56
-24.00
-17.11
-12.32
-8.79
-5.70
-2.50
0.85
3.86
5.80
6.03
4.51
1.96
-0.33
-1.01
0.71
4.64
9.63
14.10
16.71
16.96
15.32
12.95
11.10
10.68
11.97
14.75
18.67
23.45
28.95
35.05
41.40
47.37
52.15
55.01
55.67
54.42
52.02
49.46
47.55
46.61
46.45
46.50
46.18
45.12
43.32
41.02
38.59
36.26
34.06
31.82
29.34
26.46
23.18
19.63
15.95
12.32
8.81
5.46
2.24
-0.93
-4.15
-7.59
-11.41
-15.74
-20.62
-25.96
-31.52
-36.90
-41.58
-45.01
-46.76
-46.60
-44.53
-40.78
-35.70
-29.63
-22.89
-15.78
-8.61
-1.71
4.62
10.13
14.73
18.44
21.38
23.67
25.38
26.60
27.39
27.87
28.18
28.43
28.70
28.99
29.22
29.29
29.10
28.58
27.70
26.46
24.83
22.82
20.48
17.88
15.16
12.41
9.71
7.02
4.29
1.46
-1.45
-4.37
-7.24
-10.05
-12.96
-16.21
-20.05
-24.57
-29.64
-34.84
-39.57
-43.20
-45.15
-45.06
-42.84
-38.65
-32.86
-25.98
-18.54
-11.01
-3.75
2.96
8.93
13.98
17.99
20.93
22.91
24.16
24.98
25.61
26.16
26.57
26.73
26.53
26.01
25.28
24.45
23.54
22.46
21.02
19.09
16.63
13.78
10.73
7.66
4.67
1.72
-1.25
-4.25
-7.16
-9.84
-12.15
-14.05
-15.62
-17.01
-18.39
-19.86
-21.51
-23.44
-25.71
-28.25
-30.76
-32.61
-33.09
-31.60
-27.96
-22.38
-15.42
-7.76
-0.03
7.31
14.01
19.93
24.93
28.88
31.71
33.47
34.36
34.67
34.64
34.55
34.56
34.57
34.33
33.66
32.54
31.14
29.80
28.74
28.30
28.39
28.38
27.39
24.91
21.02
16.62
12.81
10.32
9.84
11.08
12.63
12.66
10.08
4.81
-1.98
-8.95
-15.25
-19.64
-21.81
-22.81
-24.45
-27.93
-33.47
-39.61
-44.29
-45.36
-39.74
-25.66
-4.36
20.25
43.46
61.18
71.99
76.62
69.02
48.42
21.31
-2.92
-19.64
-27.89
-34.13
-41.62
-49.24
-52.28
-44.31
-18.63
27.30
89.81
160.01
225.96
277.07
306.53
312.92
301.08
278.79
252.84
227.20
203.14
179.76
155.64
128.73
96.76
58.06
11.15
-45.27
-110.98
-182.37
-252.11
-309.90
-345.93
-354.53
-336.25
-298.21
-251.82
-208.54
-175.82
-155.46
-144.36
-137.49
-130.67
-121.89
-111.15
-99.51
-87.92
-76.59
-65.24
-53.59
-41.96
-31.20
-22.35
-16.01
-12.01
-9.53
-7.37
-4.59
-0.82
3.58
7.82
11.07
12.87
13.37
13.17
13.04
13.54
14.73
16.19
17.28
17.45
16.50
14.62
12.23
9.74
7.37
5.10
2.83
0.44
-2.08
-4.68
-7.33
-10.08
-12.97
-16.12
-19.58
-23.34
-27.31
-31.29
-34.90
-37.62
-38.89
-38.22
-35.42
-30.64
-24.41
-17.38
-10.19
-3.31
3.02
8.74
13.85
18.31
22.05
24.98
27.00
28.11
28.38
28.00
27.24
26.31
25.42
24.68
24.13
23.75
23.49
23.23
22.84
22.08
20.74
18.71
15.99
12.77
9.32
5.86
2.55
-0.61
-3.67
-6.70
-9.73
-12.81
-15.94
-19.20
-22.69
-26.56
-30.94
-35.90
-41.40
-47.31
-53.40
-59.46
-65.26
-70.57
-75.02
-78.13
-79.23
-77.75
-73.35
-66.08
-56.31
-44.60
-31.59
-18.00
-4.73
7.10
16.35
22.23
24.77
24.97
24.44
24.78
26.86
30.56
35.03
39.27
42.78
45.63
48.27
51.05
53.83
56.12
57.37
57.35
56.37
55.01
53.70
52.38
50.54
47.61
43.64
39.66
37.49
39.04
45.27
55.64
68.25
80.54
90.19
95.53
95.67
90.20
79.22
63.56
45.16
26.94
12.16
3.41
1.72
6.35
15.35
26.47
37.83
48.14
56.48
62.10
64.35
62.92
58.05
50.44
41.00
30.44
19.12
7.03
-5.99
-19.95
-34.57
-49.22
-63.00
-74.91
-84.15
-90.31
-93.51
-94.28
-93.43
-91.71
-89.60
-87.24
-84.50
-81.17
-77.12
-72.51
-67.81
-63.63
-60.53
-58.78
-58.30
-58.69
-59.38
-59.96
-60.28
-60.34
-60.15
-59.45
-57.60
-53.70
-46.84
-36.36
-22.13
-4.64
14.99
35.13
53.94
69.78
81.56
89.00
92.63
93.41
92.38
90.27
87.41
83.93
80.03
76.17
72.94
70.86
70.07
70.23
70.65
70.48
69.04
65.93
60.96
54.14
45.59
35.48
24.13
12.01
-0.28
-12.07
-22.67
-31.48
-37.97
-41.83
-43.12
-42.32
-40.40
-38.54
-37.78
-38.71
-41.21
-44.58
-47.72
-49.56
-49.38
-46.99
-42.71
-37.24
-31.39
-25.87
-21.08
-17.06
-13.50
-9.94
-5.90
-1.13
4.31
10.11
15.79
20.94
25.28
28.71
31.28
33.05
34.01
34.10
33.27
31.64
29.45
27.04
24.69
22.49
20.27
17.70
14.48
10.48
5.84
0.98
-3.61
-7.51
-10.55
-12.85
-14.74
-16.56
-18.58
-20.84
-23.23
-25.55
-27.59
-29.31
-30.81
-32.34
-34.16
-36.52
-39.52
-43.16
-47.17
-51.07
-54.19
-55.74
-55.08
-51.88
-46.35
-39.15
-31.23
-23.54
-16.71
-10.92
-5.98
-1.50
2.86
7.20
11.38
15.06
17.91
19.70
20.44
20.41
19.97
19.43
18.96
18.53
17.99
17.25
16.28
15.19
14.06
12.93
11.70
10.28
8.68
6.98
5.40
4.14
3.23
2.54
1.75
0.48
-1.57
-4.56
-8.50
-13.15
-18.11
-22.80
-26.52
-28.51
-28.26
-25.69
-21.41
-16.61
-12.70
-10.84
-11.45
-14.15
-17.95
-21.69
-24.51
-25.90
-25.66
-23.66
-19.75
-13.89
-6.45
1.67
9.13
14.55
16.98
16.28
13.24
9.31
6.35
6.19
10.13
18.67
31.12
45.64
59.68
70.73
77.24
79.25
78.32
76.85
77.04
79.98
85.30
91.49
96.63
99.16
98.28
94.03
87.03
78.25
68.65
59.07
49.95
41.35
32.95
24.31
15.06
5.18
-4.97
-14.86
-23.97
-32.09
-39.40
-46.31
-53.19
-60.04
-66.37
-71.31
-73.94
-73.59
-70.18
-64.20
-56.45
-47.85
-39.15
-30.86
-23.31
-16.74
-11.33
-7.17
-4.16
-1.99
-0.21
1.65
3.86
6.46
9.23
11.79
13.84
15.18
15.92
16.26
16.46
16.62
16.66
16.41
15.71
14.57
13.19
11.85
10.83
10.26
10.11
10.21
10.32
10.26
9.89
9.19
8.20
7.05
5.84
4.71
3.71
2.84
1.99
0.98
-0.46
-2.58
-5.57
-9.37
-13.69
-17.95
-21.49
-23.73
-24.32
-23.27
-20.86
-17.57
-13.97
-10.58
-7.75
-5.66
-4.31
-3.58
-3.37
-3.58
-4.20
-5.09
-6.01
-6.55
-6.32
-5.10
-3.00
-0.40
2.22
4.50
6.39
8.09
9.86
11.85
13.94
15.74
16.79
16.73
15.47
13.24
10.46
7.55
4.73
1.96
-1.07
-4.89
-10.12
-17.41
-27.15
-39.13
-52.00
-63.22
-69.42
-67.45
-55.68
-34.58
-6.76
23.78
52.64
76.10
91.74
98.65
97.37
89.41
77.24
63.91
52.36
44.52
40.86
40.32
40.76
39.65
34.43
24.11
9.96
-5.15
-18.08
-26.76
-30.96
-32.46
-34.40
-41.34
-55.90
-77.11
-100.68
-120.86
-132.57
-133.06
-122.99
-106.27
-90.46
-81.75
-81.76
-87.98
-95.99
-101.95
-104.09
-103.20
-101.84
-105.43
-116.86
-134.23
-152.61
-166.96
-173.84
-171.96
-161.92
-130.24
-75.16
-9.49
47.22
81.65
92.05
85.15
70.45
56.07
46.58
40.35
32.09
22.38
14.26
10.68
13.66
23.11
36.66
50.46
58.94
59.42
54.07
48.59
47.89
55.56
72.61
97.29
125.93
153.48
176.59
194.85
209.02
213.92
204.94
181.86
150.14
117.21
87.69
62.81
41.82
23.26
5.92
-8.52
-16.66
-15.73
-5.52
10.74
27.65
39.52
42.05
34.07
17.81
-1.52
-17.98
-27.45
-28.95
-24.44
-17.49
-11.69
-9.35
-10.82
-15.36
-22.60
-33.09
-47.62
-66.01
-86.21
-104.57
-117.06
-120.63
-114.63
-101.18
-84.43
-68.82
-57.49
-51.65
-50.83
-53.67
-58.59
-64.10
-68.79
-71.12
-69.45
-62.40
-49.53
-31.94
-12.34
5.55
18.20
23.53
21.54
14.29
4.93
-3.41
-8.69
-10.16
-8.12
-3.17
4.18
13.69
25.10
37.86
51.00
63.23
73.35
80.57
84.66
85.96
85.07
82.64
79.04
74.31
68.30
61.01
52.96
45.37
39.79
37.48
38.59
41.91
45.19
46.19
43.81
38.58
32.41
27.46
24.99
24.69
24.93
23.70
19.66
12.79
4.14
-4.68
-12.25
-17.66
-20.55
-20.95
-19.33
-16.68
-14.66
-15.31
-20.40
-30.29
-43.25
-55.58
-62.80
-61.46
-50.74
-32.87
-12.37
5.79
17.98
22.77
20.93
14.45
5.40
-4.63
-14.62
-23.67
-30.79
-34.87
-35.17
-31.81
-25.98
-19.71
-15.16
-13.75
-15.58
-19.33
-22.94
-24.47
-22.84
-18.15
-11.26
-3.21
5.16
13.33
20.93
27.58
32.88
36.57
38.67
39.31
38.61
36.54
33.04
28.26
22.75
17.17
11.92
6.74
0.66
-7.37
-17.65
-29.28
-40.23
-48.22
-51.68
-50.50
-46.02
-40.30
-35.09
-31.13
-28.22
-25.76
-23.53
-21.98
-21.97
-23.93
-27.38
-30.87
-32.76
-32.21
-29.82
-27.42
-27.20
-30.54
-37.19
-45.25
-51.88
-54.57
-52.15
-45.40
-36.88
-30.02
-27.79
-31.50
-40.19
-51.00
-60.49
-66.13
-67.37
-65.70
-63.64
-63.24
-64.84
-66.76
-65.93
-59.31
-45.33
-24.74
-0.70
22.28
39.85
49.18
49.90
44.03
35.04
26.61
21.41
20.48
23.53
29.61
37.85
47.76
58.88
70.20
79.86
85.44
85.00
78.22
67.01
55.06
46.38
43.64
46.89
53.66
60.09
62.56
58.96
49.03
33.81
14.86
-6.42
-28.88
-51.41
-72.63
-90.82
-104.25
-111.70
-113.05
-109.45
-103.19
-97.00
-93.10
-92.47
-94.48
-97.27
-98.57
-96.65
-91.00
-82.32
-71.91
-60.93
-49.93
-38.74
-26.86
-13.90
0.10
14.49
28.06
39.30
46.74
49.49
47.57
42.14
35.23
29.23
26.12
26.89
31.33
38.32
46.28
53.79
59.80
63.65
64.97
63.50
59.22
52.34
43.49
33.49
23.31
13.72
5.15
-2.31
-8.78
-14.35
-18.95
-22.29
-23.93
-23.47
-20.68
-15.58
-8.50
-0.02
9.17
18.37
26.94
34.43
40.54
45.08
47.96
49.12
48.58
46.53
43.44
40.06
37.30
36.00
36.65
39.17
42.88
46.74
49.76
51.33
51.43
50.58
49.48
48.71
48.40
48.29
47.96
47.04
45.39
42.96
39.68
35.35
29.84
23.30
16.30
9.64
3.96
-0.78
-5.34
-10.96
-18.68
-28.83
-40.81
-53.36
-65.15
-75.07
-82.50
-87.15
-88.91
-87.77
-83.88
-77.65
-69.70
-60.80
-51.60
-42.51
-33.68
-25.06
-16.56
-8.19
-0.18
6.99
12.74
16.59
18.42
18.60
18.04
17.91
19.20
22.42
27.46
33.70
40.33
46.71
52.34
56.84
59.76
60.59
58.96
54.96
49.24
42.89
37.04
32.40
29.04
26.49
24.05
21.15
17.58
13.50
9.20
4.90
0.66
-3.65
-8.23
-13.28
-18.83
-24.83
-30.99
-36.97
-42.35
-46.82
-50.12
-52.07
-52.55
-51.49
-48.96
-45.17
-40.47
-35.25
-29.77
-24.05
-17.88
-11.01
-3.28
5.22
14.13
22.94
31.15
38.38
44.38
49.06
52.47
54.86
56.67
58.53
61.12
64.92
69.93
75.55
80.65
83.88
84.16
81.09
75.11
67.37
59.34
52.32
47.18
44.18
43.18
43.76
45.39
47.46
49.37
50.52
50.47
49.03
46.30
42.56
38.16
33.41
28.55
23.81
19.46
15.75
12.84
10.62
8.72
6.73
4.43
2.04
0.29
0.14
2.40
7.32
14.51
23.07
31.94
40.04
46.40
50.08
50.21
46.29
38.63
28.60
18.32
9.79
3.85
-0.32
-4.86
-12.00
-22.65
-35.70
-48.49
-58.16
-63.17
-63.96
-62.55
-61.26
-61.43
-62.89
-64.40
-64.61
-63.05
-60.39
-58.12
-57.69
-59.79
-63.99
-68.94
-73.00
-74.96
-74.52
-72.36
-69.83
-68.36
-68.96
-72.00
-77.31
-84.31
-92.02
-98.87
-102.60
-100.68
-91.34
-74.61
-52.89
-30.39
-11.61
0.44
5.26
4.68
1.57
-1.66
-3.88
-5.18
-6.09
-6.75
-6.72
-5.22
-1.76
3.45
9.64
15.80
21.23
25.91
30.41
35.48
41.57
48.34
54.72
59.28
60.88
59.24
55.08
49.71
44.46
40.05
36.50
33.36
30.14
26.62
22.86
19.02
15.07
10.72
5.59
-0.60
-7.82
-15.70
-23.73
-31.34
-38.07
-43.58
-47.61
-49.97
-50.61
-49.57
-47.03
-43.19
-38.16
-31.95
-24.57
-16.06
-6.61
3.42
13.61
23.50
32.73
41.05
48.27
54.36
59.38
63.48
66.81
69.45
71.25
71.91
71.03
68.40
64.04
58.26
51.50
44.17
36.52
28.67
20.70
12.78
5.15
-2.01
-8.66
-15.04
-21.52
-28.37
-35.63
-43.02
-50.15
-56.69
-62.58
-68.01
-73.24
-78.33
-83.06
-86.96
-89.60
-90.81
-90.69
-89.44
-87.01
-82.84
-76.09
-66.07
-52.79
-37.33
-21.56
-7.47
3.57
11.25
16.28
19.77
22.71
25.53
28.15
30.27
31.67
32.28
32.21
31.46
29.97
27.64
24.49
20.80
17.13
14.19
12.60
12.67
14.16
16.30
18.04
18.37
16.74
13.23
8.47
3.33
-1.40
-5.28
-8.21
-10.35
-11.94
-13.14
-14.08
-14.74
-15.07
-15.05
-14.72
-14.31
-14.17
-14.67
-15.94
-17.71
-19.30
-19.88
-18.80
-15.91
-11.60
-6.49
-1.11
4.35
9.95
15.70
21.27
25.92
28.77
29.24
27.49
24.41
21.31
19.36
19.01
19.98
21.41
22.42
22.40
21.24
19.14
16.41
13.37
10.33
7.60
5.52
4.30
3.91
3.99
3.90
3.00
0.87
-2.52
-6.83
-11.54
-16.09
-20.09
-23.42
-26.19
-28.66
-31.05
-33.35
-35.17
-35.91
-34.98
-32.05
-27.31
-21.32
-14.80
-8.37
-2.31
3.27
8.37
12.89
16.56
19.17
20.62
21.06
20.88
20.61
20.72
21.59
23.37
26.07
29.52
33.47
37.68
41.98
46.23
50.25
53.76
56.27
57.04
55.25
50.13
41.32
29.15
14.83
0.25
-12.41
-21.38
-25.86
-26.18
-23.66
-20.00
-16.82
-15.19
-15.61
-18.04
-22.03
-26.73
-31.01
-33.68
-33.78
-30.94
-25.50
-18.34
-10.51
-2.84
4.20
10.41
15.64
19.60
22.00
22.77
22.36
21.76
22.27
24.94
30.11
37.07
44.25
49.81
52.28
51.15
46.94
40.89
34.35
28.15
22.41
16.67
10.21
2.42
-6.91
-17.46
-28.43
-38.51
-46.10
-49.67
-48.39
-42.60
-34.03
-25.32
-19.15
-17.16
-19.32
-24.07
-29.14
-32.55
-33.48
-32.43
-30.71
-29.67
-30.03
-31.52
-33.10
-33.47
-31.62
-27.14
-20.28
-11.82
-2.77
5.90
13.53
19.89
25.18
29.81
34.18
38.41
42.30
45.50
47.67
48.73
48.86
48.32
47.34
45.90
43.83
40.96
37.24
32.79
27.89
22.83
17.91
13.32
9.14
5.29
1.50
-2.57
-7.29
-12.77
-18.92
-25.33
-31.43
-36.58
-40.17
-41.80
-41.31
-38.93
-35.26
-31.07
-27.18
-24.15
-22.16
-21.09
-20.62
-20.45
-20.39
-20.34
-20.29
-20.35
-20.66
-21.32
-22.30
-23.40
-24.37
-25.03
-25.26
-24.98
-24.20
-22.92
-21.21
-19.20
-17.17
-15.49
-14.50
-14.15
-14.10
-14.00
-13.65
-13.16
-12.81
-12.75
-13.03
-13.58
-13.82
-13.34
-12.34
-11.56
-11.77
-13.41
-15.92
-18.31
-19.47
-17.62
-11.61
-1.91
9.54
20.34
28.50
33.79
36.79
38.28
40.54
45.27
52.48
60.43
66.99
70.50
71.40
70.75
69.78
71.80
79.87
95.04
115.85
139.50
162.61
183.35
199.75
197.26
166.94
112.18
48.45
-7.45
-42.52
-60.83
-68.23
-70.20
-70.96
-71.95
-72.59
-72.30
-71.33
-70.45
-70.83
-72.16
-74.21
-76.89
-78.17
-75.74
-68.82
-58.92
-48.99
-42.32
-39.89
-41.14
-44.45
-46.58
-44.46
-36.82
-24.57
-9.82
5.36
20.50
35.65
50.01
62.51
71.66
75.88
73.96
65.70
52.24
36.13
20.17
5.88
-5.73
-13.78
-17.61
-17.31
-14.18
-10.44
-8.49
-10.34
-18.02
-32.16
-51.50
-73.40
-94.98
-114.04
-128.79
-137.50
-132.59
-110.31
-74.64
-36.33
-6.08
10.72
14.54
9.95
2.47
-4.04
-8.84
-12.84
-16.96
-21.26
-24.18
-24.97
-23.60
-20.80
-17.78
-16.48
-18.23
-22.89
-28.91
-34.31
-37.80
-38.95
-38.08
-35.92
-33.59
-31.94
-31.06
-30.40
-29.34
-27.73
-25.83
-24.13
-23.05
-22.97
-23.77
-24.74
-24.71
-22.38
-16.81
-7.59
5.12
20.58
37.57
54.80
71.19
86.16
99.63
111.84
123.22
134.20
145.10
156.08
166.96
177.28
186.21
192.67
195.43
193.48
186.27
173.91
157.22
137.60
116.71
96.11
76.86
59.40
43.71
29.53
16.76
5.72
-2.87
-8.10
-9.38
-6.97
-2.25
2.58
5.11
3.71
-1.82
-9.96
-17.99
-23.23
-24.22
-21.42
-17.01
-14.09
-15.52
-22.85
-35.81
-52.31
-69.55
-85.13
-97.73
-107.22
-114.34
-120.25
-125.97
-131.91
-137.68
-143.02
-148.44
-155.06
-163.89
-175.13
-187.81
-199.89
-208.58
-210.87
-205.53
-193.92
-179.34
-165.09
-153.03
-142.95
-132.85
-119.35
-98.29
-66.94
-25.06
25.25
80.46
136.00
186.63
224.52
239.23
226.39
192.26
149.86
110.73
81.15
62.56
53.54
51.37
52.89
56.93
61.37
62.76
57.52
43.64
21.41
-6.87
-37.78
-67.22
-88.07
-94.89
-85.13
-59.86
-23.34
17.84
56.18
85.12
101.00
104.17
97.44
84.86
70.20
56.11
43.72
32.89
22.80
12.86
3.37
-5.34
-13.03
-19.89
-26.39
-32.87
-39.17
-44.51
-47.67
-47.41
-43.38
-36.24
-27.37
-18.27
-9.90
-2.37
4.88
12.66
21.32
30.27
38.13
43.24
44.31
40.92
33.66
23.80
12.97
2.82
-5.14
-9.55
-9.38
-4.29
5.06
16.95
28.97
38.90
45.50
48.73
49.56
49.15
48.28
47.05
45.28
42.91
40.35
38.30
37.31
37.24
37.22
35.92
32.14
25.38
15.98
5.13
-5.50
-14.13
-19.12
-19.43
-14.96
-6.82
2.72
10.72
14.50
12.51
4.84
-6.99
-20.76
-34.45
-46.84
-57.53
-66.67
-74.38
-80.61
-85.14
-87.80
-88.65
-87.87
-85.63
-81.88
-76.49
-69.33
-60.63
-50.98
-41.25
-32.24
-24.49
-18.03
-12.54
-7.57
-2.70
2.25
7.15
11.77
15.81
19.08
21.62
23.68
25.64
27.87
30.57
33.60
36.60
39.06
40.52
40.72
39.68
37.66
35.09
32.50
30.26
28.58
27.33
26.11
24.38
21.65
17.63
12.38
6.11
-0.87
-8.38
-16.37
-24.91
-33.93
-43.11
-51.77
-59.05
-64.13
-66.56
-66.43
-64.34
-61.15
-57.63
-54.23
-50.98
-47.67
-44.08
-40.22
-36.45
-33.31
-31.35
-30.82
-31.50
-32.71
-33.50
-32.93
-30.37
-25.76
-19.67
-13.25
-7.96
-5.23
-5.95
-10.12
-16.60
-23.28
-27.63
-27.49
-21.89
-11.39
1.92
15.23
25.93
32.47
34.77
33.91
31.44
28.71
26.39
24.45
22.53
20.37
18.12
16.42
16.15
18.11
22.78
30.05
39.16
48.85
57.74
64.84
69.98
73.75
77.21
81.40
86.78
92.98
98.95
103.48
105.74
105.60
103.15
98.47
91.48
82.05
70.24
56.57
42.20
28.72
17.84
10.29
5.52
2.22
-0.88
-4.33
-7.51
-8.90
-6.99
-1.23
6.89
14.15
17.21
14.02
4.54
-9.65
-26.11
-43.55
-58.24
-66.02
-65.31
-58.34
-49.45
-42.96
-41.48
-45.13
-51.99
-59.24
-64.83
-68.13
-69.55
-69.80
-69.36
-68.26
-66.36
-62.77
-57.69
-52.13
-47.46
-44.43
-42.76
-41.48
-39.51
-36.31
-32.08
-27.68
-24.18
-22.34
-22.21
-23.05
-23.68
-22.91
-19.79
-13.79
-4.98
5.85
17.24
27.43
35.14
40.19
43.72
47.77
54.33
64.26
76.82
89.90
101.06
108.50
111.64
111.00
107.63
102.58
96.76
91.13
86.75
84.56
84.88
87.06
89.40
89.93
87.08
80.44
70.79
59.63
48.40
37.85
27.91
17.89
6.90
-5.69
-20.04
-35.69
-51.65
-66.77
-80.02
-90.95
-99.75
-107.03
-113.42
-119.12
-123.85
-126.99
-128.04
-126.86
-123.55
-118.22
-110.81
-101.37
-90.58
-79.96
-71.60
-67.11
-66.72
-68.67
-69.83
-66.88
-57.58
-41.39
-19.33
6.74
34.70
62.36
87.45
107.51
120.40
124.90
121.32
111.57
98.56
85.28
73.91
65.44
59.65
55.49
51.55
46.59
39.93
31.73
22.97
15.06
9.23
6.05
5.17
5.60
6.24
6.24
5.30
3.55
1.44
-0.38
-1.01
0.65
5.65
14.57
27.10
41.92
56.87
69.44
77.22
78.30
71.51
56.61
34.58
7.62
-21.21
-48.59
-71.69
-88.71
-98.90
-102.30
-99.47
-91.41
-79.64
-66.23
-53.47
-43.21
-36.26
-32.08
-29.17
-25.85
-21.16
-15.25
-9.19
-4.27
-1.39
-0.60
-1.36
-2.90
-4.69
-6.58
-8.66
-10.94
-13.18
-14.97
-15.91
-15.92
-15.39
-15.04
-15.65
-17.85
-21.92
-27.74
-34.86
-42.56
-49.99
-56.37
-61.11
-63.98
-65.05
-64.56
-62.70
-59.39
-54.36
-47.25
-37.97
-26.82
-14.62
-2.39
8.87
18.49
26.13
31.77
35.53
37.64
38.37
38.04
37.09
35.97
35.10
34.80
35.24
36.47
38.32
40.54
42.71
44.44
45.39
45.48
44.85
43.84
42.80
41.96
41.34
40.73
39.80
38.19
35.66
32.28
28.39
24.48
20.92
17.75
14.61
10.91
6.24
0.65
-5.25
-10.54
-14.41
-16.58
-17.36
-17.45
-17.53
-18.01
-19.06
-20.71
-23.05
-26.25
-30.39
-35.31
-40.61
-45.81
-50.47
-54.40
-57.55
-59.89
-61.34
-61.73
-60.99
-59.14
-56.41
-53.08
-49.44
-45.70
-42.02
-38.54
-35.36
-32.48
-29.81
-27.14
-24.31
-21.20
-17.87
-14.48
-11.20
-8.20
-5.55
-3.32
-1.61
-0.51
-0.11
-0.41
-1.38
-2.90
-4.88
-7.30
-10.13
-13.25
-16.39
-19.11
-20.84
-21.16
-19.84
-16.99
-12.98
-8.23
-3.06
2.36
7.95
13.62
19.13
24.09
28.09
30.85
32.33
32.78
32.56
32.08
31.55
31.07
30.58
30.02
29.40
28.79
28.23
27.70
27.08
26.19
24.91
23.23
21.25
19.13
16.99
14.85
12.68
10.39
7.92
5.20
2.20
-1.11
-4.66
-8.34
-12.02
-15.58
-18.97
-22.32
-25.79
-29.53
-33.54
-37.66
-41.49
-44.49
-46.08
-45.77
-43.36
-38.94
-32.92
-25.92
-18.50
-11.12
-4.01
2.76
9.14
15.03
20.20
24.39
27.34
28.98
29.44
29.05
28.23
27.34
26.56
25.90
25.22
24.36
23.29
22.03
20.64
19.10
17.31
15.12
12.46
9.47
6.40
3.56
1.21
-0.55
-1.74
-2.44
-2.71
-2.45
-1.45
0.63
4.10
9.10
15.49
22.79
30.38
37.72
44.60
51.07
57.20
62.65
66.50
67.47
64.45
57.09
46.05
32.79
19.06
6.53
-3.46
-9.70
-11.08
-6.84
3.03
17.14
32.56
45.61
53.09
53.38
46.93
35.87
22.98
10.82
0.94
-6.16
-10.56
-12.28
-11.18
-7.13
-0.39
8.04
16.88
24.66
30.18
32.98
33.99
34.60
35.93
38.21
40.41
41.70
41.30
38.74
34.09
28.90
24.75
22.31
21.16
19.47
16.76
13.04
8.49
3.49
0.06
-0.22
2.87
7.98
12.10
14.75
16.63
18.96
23.27
32.75
49.29
72.30
98.72
123.35
144.61
162.88
179.20
180.25
157.26
110.86
52.11
4.55
-29.98
-53.49
-67.77
-76.40
-80.67
-79.75
-73.52
-63.44
-52.52
-45.61
-44.34
-48.92
-58.77
-72.45
-86.41
-96.81
-100.89
-97.84
-88.93
-75.59
-62.04
-53.70
-53.70
-60.20
-68.94
-76.06
-80.08
-82.59
-85.31
-89.90
-95.07
-99.31
-100.69
-97.92
-91.00
-81.51
-72.18
-64.92
-60.46
-57.80
-55.22
-50.83
-43.21
-31.72
-16.78
0.30
18.11
35.16
50.61
63.63
71.80
73.06
67.92
59.37
50.71
44.93
41.19
38.59
36.78
36.10
36.50
38.16
40.70
43.23
44.85
45.05
44.20
42.96
41.88
41.22
40.80
39.97
38.09
35.10
31.43
27.86
24.95
22.71
20.50
17.17
11.70
4.00
-4.84
-12.99
-19.06
-22.51
-23.81
-24.59
-27.17
-33.32
-42.97
-54.17
-64.17
-71.14
-73.92
-71.66
-64.13
-52.52
-38.60
-24.37
-12.20
-5.02
-6.17
-16.72
-31.07
-39.33
-33.74
-13.92
13.17
36.61
52.62
59.54
57.01
45.48
25.76
-2.64
-39.31
-81.70
-124.60
-161.97
-188.69
-201.35
-198.87
-173.20
-126.53
-70.92
-20.43
18.99
49.92
78.16
107.85
137.37
161.54
173.44
169.90
150.06
119.55
83.73
51.19
28.70
16.69
9.89
1.14
-11.30
-23.53
-26.65
-14.57
12.71
48.49
82.79
107.51
117.22
111.46
94.42
72.65
51.03
31.70
13.93
-3.92
-22.28
-40.17
-55.22
-64.98
-67.62
-63.00
-52.12
-36.95
-19.68
-2.07
14.72
30.24
44.08
55.59
63.43
66.41
64.08
57.46
49.04
41.83
38.25
39.03
43.06
47.74
50.15
47.98
40.15
27.14
10.90
-5.43
-18.22
-24.39
-22.49
-13.46
-0.43
12.31
20.96
23.57
20.54
14.01
6.52
-0.21
-5.76
-10.60
-15.22
-19.48
-22.49
-23.26
-21.38
-17.44
-12.81
-8.97
-6.90
-6.65
-7.60
-8.83
-9.73
-10.19
-10.54
-11.23
-12.59
-14.71
-17.42
-20.44
-23.45
-26.18
-28.45
-30.25
-31.81
-33.55
-35.91
-39.04
-42.63
-45.94
-48.04
-48.31
-46.65
-43.61
-40.02
-36.65
-33.91
-31.84
-30.26
-28.98
-27.91
-26.93
-25.70
-23.52
-19.53
-13.10
-4.21
6.33
17.10
26.54
33.51
37.60
39.05
38.47
36.48
33.52
29.87
25.84
21.81
18.16
15.11
12.56
10.20
7.76
5.26
3.06
1.77
1.95
3.81
6.93
10.35
12.83
13.28
11.16
6.68
0.69
-5.66
-11.34
-15.85
-19.33
-22.40
-25.88
-30.40
-36.20
-43.13
-50.73
-58.44
-65.76
-72.36
-78.00
-82.46
-85.53
-87.07
-87.17
-86.08
-83.87
-79.96
-73.08
-61.80
-45.66
-26.05
-6.27
9.43
17.50
16.37
6.88
-8.47
-26.66
-45.16
-62.15
-76.29
-86.37
-91.47
-91.52
-87.65
-82.07
-77.39
-75.52
-77.03
-81.02
-85.69
-89.25
-90.66
-89.98
-88.15
-86.31
-85.18
-84.65
-83.87
-81.70
-77.20
-70.03
-60.44
-49.18
-37.19
-25.46
-14.91
-6.34
-0.32
2.86
3.36
1.75
-1.13
-4.39
-7.35
-9.73
-11.62
-13.42
-15.47
-17.99
-20.90
-23.98
-27.05
-30.10
-33.35
-37.14
-41.77
-47.30
-53.51
-59.85
-65.59
-69.89
-72.02
-71.47
-68.15
-62.31
-54.51
-45.29
-35.05
-23.91
-11.86
1.01
14.40
27.69
40.10
50.93
59.77
66.58
71.67
75.46
78.33
80.48
81.96
82.73
82.81
82.28
81.23
79.77
77.82
75.23
71.82
67.55
62.60
57.34
52.21
47.52
43.40
39.69
36.08
32.28
28.15
23.79
19.44
15.39
11.81
8.66
5.68
2.51
-1.22
-5.81
-11.35
-17.74
-24.58
-31.23
-36.79
-40.29
-40.87
-38.00
-31.68
-22.52
-11.50
0.23
11.70
22.29
31.73
40.03
47.22
53.30
58.22
61.95
64.61
66.47
67.91
69.24
70.59
71.90
73.02
73.84
74.42
74.90
75.38
75.78
75.87
75.44
74.55
73.59
73.21
73.98
76.08
79.21
82.83
86.41
89.56
91.96
93.21
92.76
90.04
84.81
77.26
67.98
57.57
46.42
34.71
22.60
10.59
-0.57
-10.10
-17.71
-23.74
-28.98
-34.18
-39.75
-45.61
-51.46
-56.90
-61.25
-63.28
-61.14
-52.78
-36.91
-13.88
13.86
42.45
67.94
87.53
100.37
107.24
109.82
109.80
108.41
106.45
104.36
102.25
99.72
95.84
89.53
80.13
68.07
55.01
43.40
35.59
33.17
36.41
44.05
53.27
60.15
60.87
53.36
38.92
22.49
11.08
10.60
22.91
44.73
69.13
89.03
100.35
103.38
101.30
97.45
92.98
86.64
76.46
61.98
45.23
29.87
19.09
13.71
11.76
9.55
3.82
-6.61
-20.28
-33.94
-44.04
-48.26
-46.35
-40.10
-32.58
-27.17
-26.52
-31.80
-42.45
-56.39
-70.80
-83.02
-91.34
-95.29
-95.52
-93.18
-89.49
-85.31
-81.14
-77.21
-73.63
-70.51
-67.95
-66.08
-65.00
-64.75
-65.32
-66.52
-68.07
-69.60
-70.83
-71.61
-72.06
-72.44
-73.09
-74.29
-76.17
-78.62
-81.27
-83.45
-84.22
-82.52
-77.47
-68.69
-56.50
-41.95
-26.50
-11.65
1.43
12.15
20.47
26.73
31.52
35.40
38.81
41.95
44.75
46.98
48.40
48.98
49.01
48.95
49.19
49.69
49.96
49.20
46.83
42.93
38.35
34.49
32.81
34.31
39.33
47.53
58.00
69.48
80.70
90.82
99.92
109.05
119.80
133.27
148.99
164.36
175.05
176.06
163.22
134.16
88.93
30.34
-36.34
-103.73
-163.51
-208.07
-232.18
-233.85
-214.07
-175.77
-123.10
-61.49
1.75
57.45
95.88
109.57
96.27
60.59
13.21
-32.34
-63.88
-73.94
-61.42
-30.98
8.95
48.94
80.96
99.90
104.25
95.73
78.54
58.15
40.02
28.66
26.49
33.35
46.61
62.00
75.00
82.24
82.14
75.10
62.77
47.40
31.31
16.48
4.38
-4.26
-9.51
-12.26
-13.79
-15.32
-17.54
-20.47
-23.58
-26.12
-27.46
-27.41
-26.27
-24.69
-23.44
-23.13
-24.01
-25.96
-28.49
-31.00
-32.89
-33.81
-33.77
-33.14
-32.41
-32.07
-32.28
-32.82
-33.17
-32.82
-31.48
-29.23
-26.50
-23.82
-21.68
-20.30
-19.59
-19.26
-18.96
-18.48
-17.77
-17.00
-16.37
-15.98
-15.76
-15.49
-15.01
-14.33
-13.60
-13.08
-12.91
-13.04
-13.25
-13.33
-13.16
-12.82
-12.48
-12.32
-12.45
-12.90
-13.61
-14.42
-15.12
-15.49
-15.36
-14.72
-13.80
-12.96
-12.59
-12.90
-13.87
-15.25
-16.71
-17.97
-18.82
-19.18
-19.03
-18.46
-17.63
-16.76
-16.06
-15.65
-15.50
-15.48
-15.44
-15.35
-15.34
-15.58
-16.22
-17.25
-18.55
-19.89
-21.13
-22.17
-22.95
-23.45
-23.60
-23.36
-22.80
-22.12
-21.58
-21.43
-21.72
-22.32
-22.99
-23.52
-23.85
-24.07
-24.35
-24.84
-25.51
-26.31
-27.13
-27.96
-28.86
-29.82
-30.73
-31.30
-31.18
-30.02
-27.64
-24.08
-19.59
-14.55
-9.39
-4.48
-0.08
3.66
6.72
9.10
10.80
11.78
12.03
11.54
10.43
8.89
7.19
5.58
4.24
3.22
2.49
2.01
1.72
1.62
1.67
1.76
1.75
1.51
1.06
0.55
0.23
0.30
0.74
1.32
1.69
1.56
0.92
-0.02
-0.86
-1.26
-1.08
-0.43
0.44
1.21
1.63
1.60
1.14
0.38
-0.48
-1.22
-1.67
-1.69
-1.28
-0.47
0.61
1.80
2.92
3.80
4.28
4.32
3.98
3.47
3.10
3.14
3.78
4.94
6.42
7.88
9.04
9.74
10.01
10.02
10.01
10.16
10.50
11.00
11.55
12.06
12.53
13.00
13.44
13.78
13.98
14.38
15.72
18.97
24.80
33.01
42.20
50.19
54.76
54.56
49.55
40.69
29.28
16.21
1.68
-14.46
-32.21
-51.01
-69.74
-87.13
-102.20
-114.35
-123.02
-127.27
-125.69
-116.86
-100.25
-76.94
-49.78
-22.64
0.78
18.09
28.79
33.98
35.58
35.47
35.05
35.18
36.40
39.04
43.16
48.37
54.02
59.55
65.03
71.39
80.09
92.47
108.82
127.94
147.10
162.76
171.36
170.28
158.46
136.72
107.73
75.53
44.62
18.80
0.24
-11.08
-16.95
-20.07
-22.85
-26.69
-31.78
-37.50
-43.08
-47.98
-52.01
-55.06
-56.87
-56.96
-54.85
-50.44
-44.37
-37.89
-32.60
-29.76
-29.85
-32.49
-36.75
-41.77
-47.08
-52.71
-58.89
-65.67
-72.68
-79.15
-84.29
-87.43
-88.19
-86.41
-82.18
-75.77
-67.77
-59.03
-50.45
-42.80
-36.50
-31.58
-27.77
-24.63
-21.53
-17.72
-12.43
-5.16
3.97
14.17
24.10
32.43
38.23
41.18
41.43
39.24
34.87
28.58
20.87
12.57
4.64
-2.08
-7.00
-9.93
-10.98
-10.43
-8.66
-5.88
-2.05
3.05
9.31
15.61
19.49
17.75
7.97
-9.84
-32.35
-53.65
-67.63
-70.65
-63.15
-49.24
-34.54
-23.64
-18.62
-19.11
-23.46
-29.90
-37.00
-43.42
-47.47
-47.32
-41.67
-30.37
-14.64
3.53
22.07
39.48
54.72
66.80
74.53
76.81
73.35
65.47
56.13
49.19
47.92
53.71
65.41
79.59
91.89
98.42
97.16
88.50
74.97
60.31
48.17
41.04
39.59
42.68
47.83
52.04
52.72
48.30
38.50
24.28
7.37
-10.16
-26.35
-39.83
-50.10
-57.69
-63.91
-70.15
-77.02
-83.82
-88.74
-89.94
-86.80
-80.65
-74.45
-71.40
-73.46
-80.48
-90.55
-101.07
-109.95
-116.16
-119.56
-120.29
-118.26
-113.14
-104.72
-93.36
-80.07
-66.21
-52.80
-39.93
-26.55
-11.15
7.28
28.28
49.55
67.65
79.31
82.85
78.75
69.42
58.19
48.23
42.06
41.47
47.44
59.92
77.14
95.33
109.38
114.41
107.88
90.88
67.90
45.04
27.68
18.55
17.34
21.60
28.25
34.83
39.98
42.93
43.00
39.38
31.57
20.06
6.65
-5.98
-15.43
-20.74
-23.14
-25.52
-31.12
-42.00
-57.97
-76.72
-94.86
-109.38
-118.63
-122.59
-122.20
-118.54
-112.33
-103.93
-93.69
-82.40
-71.30
-61.78
-54.87
-50.71
-48.33
-45.90
-41.38
-33.45
-22.23
-9.53
1.70
8.49
9.06
3.48
-6.34
-17.55
-27.38
-34.01
-36.68
-35.47
-30.71
-22.90
-12.83
-1.97
7.48
12.92
12.13
4.17
-10.09
-28.03
-46.02
-60.54
-69.28
-71.67
-68.80
-62.66
-55.24
-47.71
-40.25
-32.38
-23.60
-14.10
-4.89
2.51
6.75
7.25
4.43
-0.55
-6.36
-12.03
-17.21
-22.01
-26.63
-30.93
-34.16
-35.07
-32.34
-25.08
-13.39
1.56
17.88
33.57
47.10
57.48
63.90
65.31
60.43
48.46
30.01
7.69
-14.30
-31.45
-40.49
-40.62
-33.64
-23.13
-13.22
-7.32
-7.43
-13.90
-25.58
-40.27
-55.42
-68.72
-78.66
-84.61
-86.63
-85.06
-80.34
-73.00
-63.89
-54.18
-45.16
-37.80
-32.45
-28.78
-26.10
-23.86
-21.95
-20.64
-20.37
-21.26
-23.01
-24.94
-26.37
-26.91
-26.62
-25.96
-25.50
-25.72
-26.85
-28.85
-31.39
-33.91
-35.66
-35.74
-33.28
-27.71
-19.01
-7.75
4.97
17.86
29.79
40.09
48.58
55.51
61.29
66.33
70.84
74.92
78.62
82.05
85.42
88.92
92.61
96.26
99.33
101.22
101.44
99.86
96.72
92.44
87.42
81.79
75.42
68.06
59.56
49.95
39.44
28.30
16.77
5.08
-6.44
-17.42
-27.53
-36.57
-44.51
-51.47
-57.43
-62.11
-64.95
-65.44
-63.31
-58.76
-52.29
-44.37
-35.18
-24.56
-12.35
1.22
15.41
29.16
41.46
51.91
60.77
68.81
76.83
85.27
94.17
103.17
111.78
119.49
125.88
130.52
133.09
133.40
131.50
127.58
121.88
114.52
105.56
95.06
83.37
71.14
59.18
48.14
38.19
28.98
19.84
10.18
-0.18
-10.86
-21.02
-29.63
-35.84
-39.11
-39.26
-36.41
-30.82
-22.88
-13.06
-1.99
9.57
20.73
30.67
38.76
44.71
48.64
50.95
52.22
53.00
53.62
54.19
54.58
54.62
54.11
53.01
51.39
49.38
47.12
44.62
41.73
38.20
33.88
28.78
23.18
17.51
12.24
7.69
3.91
0.71
-2.33
-5.74
-9.94
-15.14
-21.20
-27.57
-33.43
-37.77
-39.71
-38.67
-34.58
-27.83
-19.26
-9.81
-0.35
8.50
16.44
23.38
29.25
33.88
36.99
38.26
37.55
35.08
31.42
27.42
23.91
21.47
20.27
20.12
20.59
21.26
21.85
22.28
22.56
22.71
22.57
21.93
20.56
18.36
15.43
12.03
8.42
4.77
1.07
-2.81
-7.06
-11.76
-16.85
-22.12
-27.27
-31.98
-35.97
-38.94
-40.53
-40.31
-37.82
-32.79
-25.30
-15.84
-5.20
5.77
16.41
26.40
35.69
44.31
52.18
59.02
64.50
68.39
70.68
71.56
71.31
70.21
68.38
65.95
63.08
60.01
57.03
54.30
51.74
49.01
45.63
41.20
35.58
28.97
21.79
14.50
7.42
0.67
-5.79
-12.12
-18.46
-24.97
-31.79
-38.81
-46.01
-53.74
-62.14
-71.10
-80.54
-90.41
-100.67
-111.12
-121.03
-129.27
-134.69
-135.75
-130.93
-119.38
-101.21
-77.41
-49.65
-19.47
11.18
39.12
61.54
76.53
83.05
81.52
73.97
63.59
55.16
52.17
53.73
58.51
65.73
74.07
82.23
89.22
94.48
100.78
110.12
118.67
124.75
129.75
134.61
139.85
145.51
151.39
161.82
179.37
196.71
209.56
218.15
222.05
220.68
213.90
202.60
194.98
197.98
206.17
217.34
233.67
254.25
275.53
292.49
262.42
166.18
65.37
-15.24
-84.52
-141.91
-187.37
-222.24
-248.84
-269.60
-280.06
-277.02
-269.21
-261.21
-251.93
-241.60
-231.28
-222.27
-215.33
-205.70
-189.61
-172.72
-157.72
-143.08
-128.36
-113.87
-100.21
-87.98
-74.60
-58.39
-43.75
-33.06
-25.76
-21.58
-20.30
-21.60
-24.92
-28.02
-29.13
-29.58
-30.17
-30.69
-31.51
-33.12
-35.80
-39.30
-42.43
-44.04
-44.40
-44.01
-43.49
-43.76
-45.56
-49.09
-53.97
-59.34
-64.28
-68.13
-70.66
-71.97
-72.23
-71.42
-69.25
-65.32
-59.35
-51.44
-42.17
-32.47
-23.25
-15.09
-8.03
-1.70
4.16
9.60
14.29
17.72
19.50
19.67
18.81
17.87
17.79
18.67
20.06
21.26
21.56
20.59
18.43
15.54
12.68
10.50
8.52
6.05
2.53
-2.28
-8.25
-15.11
-22.48
-29.76
-36.31
-42.90
-50.33
-58.98
-68.87
-79.58
-90.78
-102.17
-113.11
-122.50
-130.67
-137.45
-141.91
-142.87
-139.59
-132.95
-125.55
-120.08
-107.34
-81.37
-40.62
11.81
70.72
130.88
185.66
226.97
248.28
247.67
227.55
195.28
161.43
132.43
111.80
98.87
90.01
81.80
72.41
59.98
43.01
21.14
-4.37
-29.98
-48.70
-56.64
-54.07
-46.42
-43.65
-55.56
-85.26
-125.92
-161.79
-177.79
-166.12
-128.61
-75.19
-19.90
23.68
47.40
50.09
37.25
14.72
-12.44
-39.53
-61.71
-67.13
-48.82
-10.27
28.99
61.40
83.56
95.03
95.93
89.11
79.42
70.72
65.46
64.71
69.47
77.67
86.33
93.35
98.47
102.60
105.90
108.11
108.91
108.88
106.89
101.36
91.39
77.53
61.39
44.15
26.54
8.80
-8.63
-26.38
-44.75
-62.84
-78.22
-88.10
-90.98
-87.39
-79.71
-70.90
-63.69
-58.87
-54.75
-47.80
-34.49
-13.09
15.54
48.21
80.53
107.87
126.57
134.67
132.17
120.86
103.86
85.02
68.35
57.36
54.53
60.67
74.16
90.56
103.10
104.63
90.64
61.73
24.07
-12.87
-40.43
-54.22
-55.42
-49.28
-41.97
-37.88
-38.77
-44.64
-55.19
-70.41
-90.05
-112.52
-134.48
-151.56
-160.09
-158.66
-148.73
-133.81
-118.13
-105.28
-97.09
-93.54
-93.02
-93.15
-91.63
-86.84
-78.17
-65.92
-51.04
-34.89
-19.03
-4.93
6.25
14.05
18.78
21.33
22.79
23.98
25.34
26.98
28.98
31.46
34.48
37.72
40.49
41.98
41.81
40.57
39.63
40.40
43.39
47.50
50.35
49.21
42.36
29.94
14.01
-2.31
-16.00
-25.20
-29.69
-30.66
-30.08
-29.80
-30.88
-33.30
-36.16
-38.15
-38.31
-36.58
-33.83
-31.50
-30.81
-32.20
-35.19
-38.90
-42.75
-46.93
-52.26
-59.61
-69.16
-80.05
-90.62
-98.81
-102.48
-99.60
-88.42
-68.10
-39.38
-5.33
29.07
58.07
77.22
84.90
82.78
74.73
64.98
56.49
50.21
45.63
41.81
38.21
34.83
31.82
28.99
25.62
20.89
14.45
6.79
-0.84
-7.08
-11.27
-13.84
-15.96
-18.91
-23.20
-28.15
-32.17
-33.47
-30.87
-24.37
-15.15
-5.25
3.15
8.36
9.64
7.42
2.98
-2.04
-6.29
-9.16
-10.81
-11.84
-12.71
-13.48
-13.73
-12.88
-10.57
-6.83
-2.04
3.29
8.77
14.14
19.16
23.45
26.40
27.40
26.04
22.40
17.19
11.54
6.77
3.99
3.86
6.46
11.42
18.01
25.32
32.31
37.89
41.07
41.29
38.55
33.53
27.28
20.81
14.73
9.17
3.98
-0.92
-5.32
-8.83
-11.16
-12.44
-13.31
-14.55
-16.66
-19.55
-22.52
-24.62
-25.14
-23.87
-21.16
-17.69
-14.18
-11.13
-8.77
-7.09
-5.86
-4.76
-3.49
-1.79
0.42
2.98
5.56
7.65
8.81
8.76
7.52
5.35
2.66
-0.20
-2.99
-5.65
-8.18
-10.51
-12.46
-13.83
-14.51
-14.56
-14.23
-13.83
-13.54
-13.38
-13.20
-12.83
-12.15
-11.16
-9.88
-8.29
-6.28
-3.71
-0.55
3.07
6.90
10.61
13.96
16.81
19.09
20.77
21.83
22.31
22.39
22.36
22.50
22.98
23.59
23.85
23.07
20.68
16.48
10.76
4.20
-2.34
-8.12
-12.69
-16.02
-18.33
-20.00
-21.35
-22.54
-23.56
-24.37
-24.94
-25.40
-25.97
-26.86
-28.11
-29.55
-30.75
-31.28
-30.79
-29.22
-26.76
-23.80
-20.74
-17.83
-15.18
-12.83
-10.82
-9.25
-8.19
-7.66
-7.54
-7.58
-7.55
-7.35
-7.05
-6.77
-6.60
-6.44
-6.04
-5.15
-3.69
-1.90
-0.20
0.95
1.36
1.17
0.80
0.69
1.07
1.87
2.74
3.32
3.39
2.97
2.24
1.36
0.41
-0.65
-1.81
-2.95
-3.79
-4.04
-3.58
-2.54
-1.32
-0.35
0.08
-0.03
-0.44
-0.82
-0.93
-0.74
-0.33
0.12
0.48
0.74
0.99
1.34
1.89
2.62
3.43
4.12
4.47
4.36
3.80
2.91
1.91
0.99
0.22
-0.42
-0.95
-1.38
-1.66
-1.69
-1.42
-0.85
-0.01
1.00
2.11
3.24
4.28
5.12
5.69
6.00
6.21
6.52
7.06
7.79
8.44
8.68
8.31
7.34
6.03
4.81
4.02
3.88
4.38
5.36
6.57
7.81
8.89
9.70
10.20
10.39
10.27
9.91
9.30
8.41
7.15
5.43
3.25
0.72
-1.93
-4.36
-6.24
-7.38
-7.84
-7.92
-8.08
-8.66
-9.70
-10.80
-11.29
-10.59
-8.52
-5.53
-2.50
-0.33
0.53
0.39
0.16
0.95
3.49
7.78
13.07
18.24
22.22
24.34
24.40
22.62
19.40
15.23
10.72
6.56
3.38
1.57
1.08
1.34
1.49
0.70
-1.47
-4.91
-9.10
-13.30
-16.82
-19.19
-20.16
-19.63
-17.61
-14.26
-9.94
-5.23
-0.79
2.78
5.23
6.75
7.88
9.27
11.36
14.24
17.60
20.98
24.00
26.50
28.46
29.85
30.39
29.60
27.04
22.68
17.17
11.77
7.95
6.90
8.98
13.60
19.42
24.92
28.89
30.88
31.12
30.28
29.00
27.60
26.04
24.02
21.17
17.28
12.38
6.66
0.38
-6.30
-13.38
-20.89
-28.90
-37.33
-45.92
-54.32
-62.09
-68.84
-74.30
-78.33
-80.87
-81.86
-81.27
-79.09
-75.53
-71.09
-66.48
-62.41
-59.31
-57.11
-55.28
-53.06
-49.86
-45.46
-39.95
-33.47
-25.90
-16.79
-5.71
7.34
21.44
34.90
45.71
52.44
54.87
54.14
52.25
51.34
53.01
58.22
67.40
80.62
97.30
115.73
132.90
144.89
148.12
140.86
124.01
100.88
75.83
52.66
33.41
18.31
6.47
-3.19
-11.27
-17.92
-23.10
-27.01
-30.07
-32.76
-35.39
-37.82
-39.64
-40.25
-39.24
-36.60
-32.75
-28.39
-24.24
-20.74
-17.88
-15.30
-12.59
-9.55
-6.34
-3.35
-1.00
0.52
1.34
1.83
2.34
2.99
3.64
3.91
3.42
1.96
-0.47
-3.63
-7.19
-10.75
-13.87
-16.18
-17.39
-17.44
-16.55
-15.17
-13.76
-12.67
-11.98
-11.62
-11.40
-11.25
-11.16
-11.16
-11.14
-10.91
-10.22
-8.89
-6.92
-4.45
-1.81
0.62
2.42
3.21
2.78
1.14
-1.40
-4.44
-7.55
-10.46
-13.17
-15.88
-18.90
-22.49
-26.79
-31.76
-37.22
-42.84
-48.23
-53.00
-56.89
-59.75
-61.56
-62.38
-62.14
-60.70
-57.75
-53.01
-46.32
-37.77
-27.80
-17.10
-6.47
3.27
11.50
17.84
22.21
24.73
25.77
25.80
25.30
24.70
24.26
24.10
24.22
24.68
25.54
26.91
28.78
30.91
32.75
33.69
33.20
31.24
28.22
24.98
22.42
21.22
21.65
23.65
26.99
31.35
36.37
41.53
46.24
49.84
51.91
52.43
51.74
50.37
48.73
47.00
45.11
43.08
41.10
39.55
38.81
39.09
40.30
42.10
44.12
45.94
47.12
47.13
45.40
41.45
35.04
26.26
15.45
3.07
-10.50
-24.88
-39.67
-54.23
-67.83
-79.82
-89.94
-98.36
-105.53
-111.65
-116.30
-118.50
-117.11
-111.64
-102.83
-92.73
-84.08
-79.55
-80.84
-88.25
-100.77
-116.23
-131.71
-144.02
-150.30
-148.87
-140.05
-126.36
-111.96
-101.20
-97.04
-100.06
-108.61
-119.83
-130.86
-139.70
-145.14
-146.33
-142.44
-132.82
-117.64
-98.43
-77.95
-59.37
-45.03
-35.50
-29.61
-25.23
-20.46
-14.59
-8.24
-2.75
0.69
1.64
0.70
-0.80
-1.06
1.69
8.95
21.72
40.22
63.72
90.63
118.75
145.75
169.65
189.18
203.81
213.79
219.94
223.65
226.55
230.07
235.04
241.32
247.82
252.98
255.44
254.62
250.88
245.29
239.02
232.74
226.08
217.66
205.46
187.50
162.59
130.80
93.65
53.79
14.30
-22.01
-53.39
-79.64
-102.17
-123.50
-146.18
-171.35
-197.64
-221.00
-236.02
-238.03
-225.45
-200.90
-170.58
-142.14
-121.96
-113.24
-115.40
-125.04
-137.54
-148.51
-154.56
-153.41
-143.83
-125.80
-100.77
-71.84
-43.34
-19.82
-4.70
0.81
-1.92
-9.54
-17.94
-23.77
-25.46
-23.35
-19.25
-15.45
-13.80
-15.18
-19.53
-26.19
-34.46
-44.04
-55.12
-68.20
-83.50
-100.68
-118.60
-135.66
-150.29
-161.44
-168.78
-172.60
-173.49
-172.01
-168.64
-163.61
-157.15
-149.47
-140.84
-131.51
-121.67
-111.41
-100.64
-89.16
-76.74
-63.22
-48.67
-33.33
-17.49
-1.39
14.91
31.27
47.38
62.55
75.86
86.42
93.79
98.12
100.05
100.40
99.93
99.10
98.10
96.90
95.33
93.17
90.14
86.01
80.66
74.21
67.03
59.61
52.46
45.92
40.07
34.72
29.46
23.85
17.51
10.36
2.76
-4.48
-10.19
-13.10
-12.32
-7.64
0.33
10.40
21.24
31.95
42.23
52.33
62.58
73.03
83.28
92.58
100.25
105.91
109.60
111.67
112.49
112.31
111.30
109.63
107.58
105.45
103.48
101.65
99.66
97.09
93.55
88.89
83.25
76.91
70.22
63.43
56.73
50.28
44.26
38.87
34.15
29.98
26.02
21.94
17.61
13.21
9.21
6.20
4.82
5.67
9.52
17.36
30.34
49.43
74.85
105.70
139.89
174.46
206.18
232.11
249.99
258.48
257.29
247.25
230.27
209.04
186.47
165.02
146.18
130.27
116.69
104.50
92.84
81.23
69.58
57.96
46.48
35.23
24.31
13.86
4.07
-4.94
-13.24
-21.11
-29.06
-37.61
-47.17
-57.86
-69.45
-81.41
-93.03
-103.62
-112.65
-119.79
-124.87
-127.75
-128.24
-126.11
-121.20
-113.73
-104.34
-94.13
-84.36
-75.99
-69.41
-64.29
-59.84
-55.22
-49.97
-44.15
-38.30
-33.03
-28.82
-25.80
-23.71
-22.04
-20.06
-17.06
-12.43
-5.92
2.26
11.45
20.74
29.40
37.02
43.60
49.25
53.87
57.00
57.91
55.89
50.53
41.90
30.43
16.83
1.97
-13.09
-27.11
-38.70
-46.65
-50.05
-48.63
-42.77
-33.38
-21.80
-9.47
2.32
12.57
20.81
27.09
31.88
35.89
39.79
44.00
48.49
52.89
56.53
58.79
59.23
57.83
54.86
50.79
46.01
40.73
34.93
28.51
21.39
13.64
5.49
-2.76
-10.82
-18.46
-25.47
-31.66
-36.90
-41.13
-44.48
-47.17
-49.49
-51.65
-53.72
-55.56
-56.94
-57.58
-57.19
-55.47
-52.01
-46.42
-38.48
-28.46
-17.17
-5.83
4.38
12.72
19.05
23.75
27.25
29.84
31.64
32.96
34.51
37.29
42.04
48.60
55.68
61.31
63.71
62.13
57.18
50.36
43.34
37.20
32.29
28.45
25.45
23.30
22.16
22.08
22.74
23.41
23.16
21.24
17.34
11.73
5.06
-1.88
-8.51
-14.60
-20.24
-25.50
-30.25
-33.93
-35.64
-34.45
-29.66
-21.05
-9.02
5.43
20.83
35.45
47.62
56.22
60.91
62.27
61.52
60.07
58.97
58.66
59.02
59.62
60.01
59.84
58.86
56.82
53.46
48.59
42.26
34.81
26.77
18.71
10.97
3.60
-3.59
-10.84
-18.30
-25.94
-33.63
-41.18
-48.41
-55.02
-60.55
-64.32
-65.63
-63.98
-59.40
-52.45
-44.12
-35.44
-27.18
-19.67
-12.91
-6.79
-1.35
3.19
6.53
8.47
9.04
8.49
7.21
5.57
3.88
2.27
0.78
-0.67
-2.29
-4.25
-6.73
-9.73
-13.16
-16.84
-20.65
-24.50
-28.37
-32.22
-35.92
-39.32
-42.27
-44.79
-47.08
-49.46
-52.28
-55.73
-59.79
-64.14
-68.24
-71.43
-73.07
-72.71
-70.15
-65.46
-58.99
-51.18
-42.51
-33.38
-24.12
-15.03
-6.37
1.50
8.21
13.40
16.83
18.45
18.51
17.49
15.97
14.42
13.04
11.72
10.20
8.23
5.79
3.14
0.75
-0.96
-1.75
-1.74
-1.32
-0.98
-1.12
-1.88
-3.12
-4.56
-5.89
-6.98
-7.85
-8.66
-9.55
-10.62
-11.87
-13.25
-14.69
-16.08
-17.25
-17.97
-17.95
-16.90
-14.52
-10.47
-4.45
3.76
14.07
25.90
38.11
49.15
57.42
61.78
61.89
58.34
52.42
45.65
39.32
34.12
30.13
27.14
24.75
22.53
20.13
17.32
14.00
10.17
5.84
1.12
-3.68
-8.18
-12.16
-15.65
-18.93
-22.35
-26.15
-30.45
-35.17
-39.80
-43.90
-47.41
-50.67
-54.06
-57.62
-60.90
-63.14
-63.55
-60.44
-52.82
-41.06
-26.91
-12.61
0.23
10.96
19.78
27.37
36.64
49.72
66.52
84.62
100.89
113.32
121.49
126.13
128.37
132.80
142.86
158.76
177.14
193.56
205.03
210.83
211.82
209.72
211.21
222.25
245.08
277.28
314.14
351.22
384.82
411.51
398.66
327.34
202.77
54.42
-83.40
-189.75
-260.18
-300.57
-320.34
-327.03
-322.53
-306.24
-279.73
-248.71
-220.13
-198.44
-184.45
-176.36
-172.58
-167.73
-157.86
-143.36
-129.24
-121.30
-122.45
-131.58
-144.70
-157.10
-162.59
-157.41
-140.01
-115.02
-90.72
-74.03
-66.90
-66.65
-69.09
-71.20
-70.68
-67.45
-63.42
-60.49
-59.43
-60.26
-61.30
-62.35
-63.31
-63.90
-64.04
-64.17
-64.60
-65.31
-66.18
-67.10
-68.40
-70.23
-72.10
-73.49
-74.08
-73.53
-71.39
-67.28
-60.85
-52.25
-41.66
-28.64
-12.52
7.07
29.76
54.02
76.95
95.23
105.76
107.11
100.76
90.19
79.25
70.72
65.66
63.50
63.47
64.79
66.92
70.09
74.48
79.83
85.54
91.29
96.97
103.20
110.25
113.88
110.86
101.06
87.79
75.30
68.18
64.58
61.86
57.96
51.91
43.51
33.87
23.91
13.77
3.16
-8.24
-19.46
-29.03
-35.65
-38.39
-37.26
-33.51
-29.01
-25.27
-23.18
-22.38
-22.37
-23.08
-24.75
-27.67
-32.11
-38.04
-45.02
-52.52
-59.87
-66.77
-73.32
-79.60
-85.51
-90.65
-94.33
-95.45
-92.79
-85.27
-72.78
-56.74
-40.07
-26.40
-18.87
-18.81
-25.14
-34.81
-44.09
-50.08
-51.66
-49.37
-44.52
-38.18
-30.70
-21.98
-12.19
-2.29
6.23
11.99
14.60
14.95
14.87
16.19
19.85
25.60
32.24
38.44
43.43
47.23
50.40
53.40
56.13
57.91
57.85
55.51
51.38
46.81
43.56
43.03
45.59
50.38
55.63
59.28
59.76
56.36
49.26
39.21
27.23
14.57
2.75
-6.30
-10.61
-8.94
-1.64
9.05
19.52
25.93
25.70
18.30
5.25
-10.72
-26.87
-41.12
-52.44
-60.51
-65.40
-67.36
-66.72
-64.04
-59.99
-55.29
-50.44
-45.68
-40.95
-36.00
-30.60
-24.70
-18.52
-12.48
-7.13
-2.85
0.28
2.45
4.10
5.60
7.15
8.68
9.90
10.42
9.98
8.41
5.76
2.21
-2.05
-6.82
-11.95
-17.38
-23.08
-28.99
-34.98
-40.87
-46.34
-51.06
-54.77
-57.40
-59.17
-60.54
-62.09
-64.19
-66.78
-69.27
-70.66
-69.90
-66.31
-59.83
-51.00
-40.83
-30.34
-20.43
-11.70
-4.59
0.57
3.58
4.44
3.41
1.01
-2.09
-5.28
-8.17
-10.61
-12.67
-14.47
-16.12
-17.68
-19.09
-20.18
-20.64
-20.00
-17.65
-12.96
-5.54
4.48
16.34
28.63
39.67
47.93
52.49
53.25
50.68
45.43
38.01
28.92
18.97
9.64
3.00
0.93
4.42
12.88
24.18
35.42
44.14
49.03
50.07
48.31
45.09
41.72
39.27
38.18
38.21
38.50
37.51
33.28
25.80
16.15
6.98
1.50
1.40
6.29
14.29
22.59
28.19
29.15
25.06
17.44
8.50
0.68
-4.51
-6.63
-6.42
-5.57
-5.68
-7.96
-12.88
-20.26
-30.40
-43.48
-56.79
-64.37
-61.28
-46.36
-24.12
-4.81
6.92
9.55
4.38
-4.77
-13.62
-19.10
-20.17
-17.64
-13.01
-7.10
-0.73
5.74
12.24
18.45
23.48
26.47
27.12
26.05
24.79
24.35
25.07
26.69
28.33
28.77
27.08
23.10
17.62
12.20
7.96
5.38
4.27
3.83
3.09
1.38
-1.39
-4.68
-7.67
-9.96
-11.68
-13.38
-15.74
-19.18
-23.67
-28.67
-33.30
-36.62
-38.01
-37.16
-34.15
-29.34
-23.18
-16.17
-8.71
-1.00
6.81
14.52
21.69
27.62
31.55
32.98
31.94
29.11
25.56
22.33
20.09
18.91
18.37
17.92
17.13
15.92
14.53
13.27
12.29
11.46
10.43
8.82
6.40
3.29
-0.20
-3.66
-6.85
-9.81
-12.75
-15.96
-19.58
-23.54
-27.53
-31.12
-33.83
-35.22
-35.02
-33.13
-29.71
-25.13
-19.83
-14.24
-8.65
-3.17
2.12
7.10
11.50
15.05
17.50
18.86
19.38
19.43
19.37
19.37
19.34
19.03
18.16
16.59
14.41
11.85
9.25
6.89
4.94
3.41
2.22
1.20
0.12
-1.20
-2.89
-5.03
-7.64
-10.74
-14.39
-18.60
-23.33
-28.33
-33.16
-37.19
-39.80
-40.49
-39.09
-35.78
-30.98
-25.22
-19.04
-12.83
-6.85
-1.26
3.83
8.37
12.26
15.45
17.89
19.60
20.70
21.33
21.68
21.90
22.02
21.95
21.57
20.76
19.53
17.97
16.20
14.28
12.17
9.77
7.00
3.86
0.50
-2.87
-6.08
-9.13
-12.15
-15.31
-18.69
-22.11
-25.11
-27.05
-27.29
-25.44
-21.43
-15.57
-8.38
-0.46
7.78
16.07
24.33
32.46
40.28
47.43
53.46
57.95
60.71
61.84
61.71
60.85
59.80
59.00
58.84
59.64
61.68
65.05
69.45
74.19
78.24
80.60
80.63
78.29
74.15
69.01
63.46
57.60
51.01
43.00
32.97
20.70
6.36
-9.47
-26.02
-42.33
-57.40
-70.23
-79.96
-86.18
-88.98
-89.07
-87.52
-85.42
-83.58
-82.35
-81.72
-81.55
-81.77
-82.52
-84.00
-86.25
-88.94
-91.32
-92.43
-91.43
-87.85
-81.65
-73.07
-62.39
-49.83
-35.60
-20.13
-4.22
11.04
24.51
35.43
43.55
49.17
52.79
54.80
55.33
54.24
51.33
46.56
40.17
32.63
24.62
16.84
9.92
4.41
0.67
-1.20
-1.39
-0.33
1.43
3.41
5.39
7.32
9.28
11.29
13.20
14.77
15.74
15.99
15.56
14.66
13.58
12.63
12.06
12.06
12.66
13.77
15.20
16.64
17.82
18.48
18.46
17.73
16.36
14.55
12.60
10.77
9.20
7.91
6.76
5.56
4.12
2.32
0.07
-2.69
-6.00
-9.79
-13.89
-17.97
-21.58
-24.24
-25.59
-25.46
-23.90
-21.18
-17.68
-13.76
-9.66
-5.46
-1.21
2.98
6.84
10.00
12.14
13.17
13.34
13.08
12.85
12.97
13.48
14.26
15.15
16.06
17.08
18.41
20.28
22.89
26.27
30.28
34.63
38.97
43.02
46.63
49.81
52.64
55.24
57.72
60.10
62.38
64.46
66.21
67.43
67.93
67.63
66.56
64.92
62.94
60.86
58.90
57.29
56.22
55.71
55.51
55.11
53.90
51.51
48.01
43.85
39.58
35.55
31.72
27.77
23.37
18.41
12.98
7.20
1.09
-5.34
-12.06
-18.78
-25.11
-30.70
-35.40
-39.27
-42.39
-44.73
-46.08
-46.28
-45.36
-43.67
-41.77
-40.13
-39.02
-38.39
-37.93
-37.32
-36.29
-34.72
-32.64
-30.17
-27.53
-24.96
-22.65
-20.69
-19.05
-17.65
-16.35
-15.03
-13.60
-12.03
-10.28
-8.33
-6.16
-3.77
-1.17
1.59
4.35
6.86
8.82
10.00
10.28
9.70
8.38
6.42
3.90
0.83
-2.73
-6.61
-10.50
-14.07
-17.05
-19.30
-20.85
-21.75
-22.11
-22.01
-21.58
-20.95
-20.33
-19.85
-19.66
-19.82
-20.36
-21.28
-22.48
-23.90
-25.50
-27.33
-29.52
-32.17
-35.26
-38.50
-41.47
-43.70
-44.80
-44.73
-43.68
-42.00
-40.04
-37.99
-35.85
-33.58
-31.15
-28.66
-26.35
-24.52
-23.35
-22.90
-22.98
-23.33
-23.80
-24.45
-25.49
-27.16
-29.42
-31.90
-33.96
-34.93
-34.47
-32.67
-30.03
-27.17
-24.58
-22.44
-20.62
-18.91
-17.13
-15.20
-13.18
-11.10
-8.99
-6.86
-4.83
-3.12
-2.04
-1.81
-2.37
-3.34
-4.14
-4.26
-3.46
-1.87
0.07
1.89
3.31
4.35
5.17
5.95
6.68
7.15
7.13
6.54
5.50
4.36
3.51
3.27
3.76
4.91
6.51
8.31
10.05
11.50
12.41
12.58
11.94
10.68
9.17
7.88
7.16
7.08
7.43
7.80
7.77
7.14
5.86
4.05
1.77
-0.96
-4.07
-7.32
-10.18
-11.94
-11.91
-9.66
-5.26
0.76
7.62
14.60
21.18
27.02
31.95
35.84
38.59
40.06
40.08
38.59
35.69
31.62
26.71
21.25
15.64
10.28
5.46
1.13
-2.97
-7.15
-11.65
-16.64
-22.07
-27.52
-32.21
-35.47
-37.17
-37.60
-37.27
-36.56
-35.61
-34.11
-31.15
-25.34
-15.53
-1.43
16.27
35.87
54.70
69.54
76.39
72.08
57.36
37.57
19.47
7.80
3.56
4.77
8.25
11.24
12.46
12.20
11.40
10.78
11.24
13.37
17.27
22.25
26.94
29.69
29.21
24.17
13.20
-3.58
-24.18
-44.61
-59.65
-64.37
-56.06
-35.39
-5.43
25.29
49.47
63.49
67.27
62.67
51.61
35.29
14.90
-7.87
-30.38
-48.96
-60.69
-64.84
-62.86
-57.35
-51.56
-46.07
-40.70
-35.05
-28.58
-21.32
-13.89
-7.17
-1.78
2.12
5.02
7.34
9.28
10.92
12.13
12.68
12.50
11.75
10.70
9.72
8.91
8.27
7.90
7.91
8.26
8.70
8.71
7.77
5.73
2.77
-0.51
-3.43
-5.65
-7.38
-9.16
-11.46
-14.31
-17.24
-19.71
-21.53
-23.11
-25.30
-28.88
-34.00
-39.77
-44.46
-45.98
-42.70
-34.11
-21.08
-5.65
9.67
22.76
32.63
39.67
45.35
51.56
59.89
70.90
83.80
96.52
106.08
109.35
104.07
89.89
68.99
45.85
25.99
13.99
11.74
17.68
27.50
36.17
40.05
38.14
32.06
24.92
19.86
18.95
22.56
29.39
36.88
41.82
41.31
33.74
19.46
1.05
-17.41
-31.62
-38.38
-36.54
-27.10
-12.68
3.30
17.38
26.73
29.45
24.97
14.18
-0.74
-16.83
-31.16
-41.68
-47.60
-49.48
-48.69
-46.79
-44.95
-43.65
-42.81
-42.02
-40.85
-39.04
-36.58
-33.69
-30.79
-28.38
-26.93
-26.67
-27.45
-28.81
-30.11
-30.81
-30.69
-29.90
-28.89
-28.17
-28.16
-29.05
-30.74
-33.00
-35.40
-37.52
-39.01
-39.58
-39.05
-37.41
-34.70
-31.10
-26.82
-22.11
-17.17
-12.13
-7.07
-2.03
2.86
7.39
11.31
14.44
16.79
18.52
19.85
20.90
21.60
21.70
20.94
19.22
16.70
13.82
11.08
8.92
7.59
7.05
7.11
7.51
8.05
8.66
9.49
10.89
13.28
16.96
21.89
27.51
32.82
36.65
38.02
36.61
32.83
27.76
22.81
19.24
17.95
19.21
22.71
27.74
33.38
38.69
42.93
45.63
46.54
45.63
42.91
38.54
32.80
26.24
19.57
13.52
8.60
4.86
1.93
-0.82
-3.95
-7.67
-11.81
-15.96
-19.77
-23.10
-26.07
-28.90
-31.71
-34.47
-37.04
-39.29
-41.18
-42.79
-44.14
-45.18
-45.77
-45.75
-45.11
-43.98
-42.64
-41.37
-40.30
-39.39
-38.42
-37.07
-34.99
-31.91
-27.64
-22.17
-15.66
-8.48
-1.16
5.68
11.50
15.95
18.94
20.69
21.54
21.87
21.95
21.89
21.74
21.53
21.37
21.38
21.61
22.05
22.53
22.80
22.55
21.54
19.67
17.06
14.02
10.98
8.37
6.39
4.98
3.82
2.52
0.81
-1.31
-3.68
-6.09
-8.50
-11.11
-14.20
-17.94
-22.22
-26.59
-30.43
-33.13
-34.35
-34.03
-32.39
-29.77
-26.52
-22.97
-19.45
-16.31
-13.90
-12.52
-12.30
-13.11
-14.54
-16.00
-16.87
-16.72
-15.42
-13.19
-10.47
-7.71
-5.21
-3.01
-1.00
0.95
2.84
4.49
5.64
6.08
5.74
4.78
3.52
2.27
1.19
0.22
-0.87
-2.44
-4.75
-7.96
-11.99
-16.66
-21.64
-26.54
-30.94
-34.35
-36.32
-36.49
-34.70
-31.09
-26.05
-20.16
-13.98
-7.95
-2.35
2.71
7.13
10.84
13.69
15.58
16.51
16.68
16.48
16.39
16.87
18.21
20.46
23.44
26.75
29.92
32.48
33.97
34.03
32.43
29.12
24.29
18.35
11.92
5.58
-0.17
-5.14
-9.37
-13.11
-16.65
-20.14
-23.59
-26.85
-29.71
-31.98
-33.47
-34.02
-33.43
-31.42
-27.70
-22.00
-14.14
-4.12
7.94
21.76
36.89
52.69
68.28
82.59
94.62
103.58
109.22
111.71
111.54
109.11
104.66
98.15
89.51
78.99
67.32
55.65
45.27
37.18
31.68
28.26
25.82
23.01
18.77
12.66
4.98
-3.40
-11.38
-17.92
-22.31
-24.21
-23.74
-21.39
-18.04
-14.84
-12.90
-13.10
-15.71
-20.37
-26.13
-31.73
-35.96
-37.79
-36.54
-31.95
-24.18
-13.89
-2.19
9.48
19.56
26.74
30.29
30.20
27.17
22.30
16.82
11.73
7.61
4.75
3.17
2.77
3.37
4.72
6.47
8.23
9.62
10.35
10.32
9.57
8.23
6.44
4.36
2.07
-0.38
-3.00
-5.78
-8.59
-11.22
-13.41
-14.99
-15.97
-16.55
-17.02
-17.56
-18.07
-18.28
-17.87
-16.68
-14.76
-12.33
-9.62
-6.69
-3.55
-0.22
3.07
5.88
7.63
7.84
6.39
3.50
-0.32
-4.50
-8.62
-12.50
-16.17
-19.68
-23.01
-25.96
-28.24
-29.65
-30.14
-29.91
-29.29
-28.63
-28.14
-27.89
-27.85
-27.98
-28.28
-28.83
-29.66
-30.71
-31.89
-33.08
-34.29
-35.64
-37.28
-39.27
-41.40
-43.21
-44.14
-43.71
-41.77
-38.51
-34.44
-30.13
-25.93
-21.97
-18.10
-14.13
-10.00
-5.84
-1.94
1.38
3.91
5.61
6.59
7.04
7.16
7.10
6.98
6.79
6.46
5.86
4.93
3.67
2.27
0.99
0.06
-0.41
-0.53
-0.47
-0.38
-0.32
-0.28
-0.26
-0.36
-0.75
-1.61
-2.99
-4.81
-6.87
-9.07
-11.29
-13.52
-15.77
-17.97
-19.90
-21.27
-21.80
-21.27
-19.64
-16.96
-13.42
-9.37
-5.26
-1.54
1.47
3.65
5.08
5.92
6.43
6.83
7.13
7.24
7.04
6.48
5.61
4.58
3.51
2.78
2.64
2.99
3.27
2.76
1.02
-1.95
-5.63
-9.26
-11.58
-11.72
-9.69
-6.54
-3.58
-1.71
-1.05
-1.19
-1.52
-0.68
2.27
7.17
12.63
17.01
19.41
20.06
20.12
21.22
26.22
37.62
56.38
81.30
109.53
137.65
162.23
180.32
182.92
164.50
127.34
81.89
39.97
8.22
-12.76
-25.89
-34.60
-41.22
-45.38
-45.84
-42.13
-35.62
-28.75
-23.59
-21.15
-21.40
-23.51
-25.48
-25.47
-22.62
-17.52
-11.58
-6.16
-2.42
-1.13
-2.44
-5.11
-7.48
-7.21
-2.84
5.20
14.49
21.25
21.82
14.40
0.30
-16.68
-31.88
-41.87
-46.25
-46.08
-43.23
-39.48
-35.72
-31.88
-27.51
-22.46
-17.37
-13.36
-11.18
-10.98
-12.12
-13.67
-14.82
-15.33
-15.55
-16.23
-18.30
-22.00
-27.25
-33.46
-39.70
-44.92
-48.19
-48.88
-46.88
-42.55
-36.57
-29.64
-22.20
-14.25
-5.49
4.45
15.56
27.17
37.90
46.18
50.84
51.60
48.96
44.18
39.21
36.58
39.03
48.41
64.63
84.98
104.62
117.70
119.71
109.26
88.81
63.83
40.70
24.76
19.28
25.15
40.55
59.85
74.49
76.03
61.42
34.31
1.94
-28.56
-52.40
-69.38
-80.79
-87.32
-88.91
-85.22
-76.81
-65.67
-54.88
-46.06
-40.96
-39.70
-40.81
-41.97
-41.05
-37.29
-31.64
-26.06
-22.41
-21.85
-24.02
-27.35
-29.92
-30.14
-27.41
-22.30
-15.99
-9.68
-4.31
-0.11
3.25
6.22
9.10
11.84
14.08
15.45
15.84
15.34
14.34
13.33
12.66
12.48
12.70
13.11
13.53
13.80
13.75
13.27
12.27
10.77
8.94
7.04
5.30
3.91
2.85
1.86
0.56
-1.30
-3.74
-6.53
-9.36
-12.05
-14.40
-16.55
-18.95
-22.22
-26.64
-31.93
-37.24
-41.47
-43.76
-43.35
-40.30
-35.68
-31.24
-28.42
-27.71
-28.42
-29.19
-28.70
-25.54
-19.31
-11.01
-2.60
4.23
8.75
11.40
13.34
15.97
21.71
32.64
49.55
71.39
95.89
119.96
140.40
154.38
154.25
136.08
103.22
65.13
31.15
6.03
-10.14
-19.02
-22.45
-21.89
-17.94
-11.97
-7.04
-7.10
-14.58
-28.56
-44.49
-55.81
-56.61
-43.70
-18.56
13.01
42.88
63.73
70.60
62.24
40.89
11.53
-18.63
-42.35
-54.60
-54.40
-42.46
-23.85
-5.36
7.67
13.60
14.68
14.44
15.29
17.05
17.90
15.94
11.22
5.70
1.82
0.80
1.70
2.14
-0.24
-6.12
-14.39
-22.44
-27.62
-28.54
-25.78
-21.44
-17.94
-16.84
-18.17
-20.84
-23.24
-24.14
-23.32
-21.49
-19.78
-18.97
-19.11
-19.59
-19.63
-18.61
-16.38
-13.19
-9.49
-5.71
-2.15
1.05
3.76
5.75
6.77
6.65
5.49
3.67
1.81
0.51
0.10
0.55
1.51
2.47
3.08
3.26
3.16
3.00
2.88
2.73
2.31
1.39
-0.14
-2.22
-4.61
-7.04
-9.20
-10.79
-11.62
-11.67
-11.11
-10.26
-9.55
-9.27
-9.49
-9.99
-10.35
-10.11
-8.94
-6.73
-3.55
0.39
4.79
9.29
13.44
16.77
18.91
19.69
19.26
18.07
16.62
15.33
14.38
13.75
13.37
13.20
13.27
13.56
13.84
13.73
12.78
10.78
7.90
4.66
1.78
-0.17
-1.03
-1.09
-0.95
-1.29
-2.53
-4.80
-7.82
-11.07
-14.03
-16.41
-18.23
-19.64
-20.88
-22.15
-23.67
-25.51
-27.50
-29.20
-29.99
-29.27
-26.65
-22.24
-16.74
-11.28
-6.73
-3.24
-0.03
3.85
9.07
15.52
22.13
27.33
29.18
26.87
21.10
13.98
7.52
3.32
2.28
4.52
9.47
15.13
19.83
22.78
24.57
25.41
26.13
28.28
33.75
43.62
55.92
67.37
74.35
74.32
64.13
42.53
11.12
-26.06
-64.10
-100.51
-133.28
-160.17
-178.00
-186.15
-184.73
-174.32
-156.17
-121.81
-72.67
-19.59
18.57
42.76
58.74
72.45
85.31
95.41
98.78
90.13
68.16
37.16
6.02
-18.40
-32.28
-35.31
-29.79
-19.28
-8.46
-0.11
5.38
9.73
13.05
15.04
15.56
14.98
13.90
11.93
9.02
5.64
2.97
0.76
-1.70
-5.15
-9.95
-16.02
-23.24
-30.96
-38.23
-43.98
-48.17
-51.25
-53.64
-55.40
-56.20
-55.68
-53.54
-49.68
-44.21
-37.62
-30.33
-22.58
-14.41
-5.87
2.75
10.89
17.81
22.84
25.70
26.66
26.52
26.33
27.08
29.35
33.15
37.99
43.16
47.93
51.70
54.01
54.45
52.73
48.74
42.68
35.24
27.43
20.35
14.85
11.28
9.40
8.50
7.70
6.25
3.73
0.20
-3.92
-8.06
-11.78
-14.88
-17.49
-19.89
-22.30
-24.83
-27.35
-29.60
-31.33
-32.37
-32.61
-32.02
-30.59
-28.36
-25.50
-22.29
-19.13
-16.31
-13.95
-11.81
-9.44
-6.33
-2.25
2.67
7.89
12.71
16.52
19.03
20.21
20.29
19.49
18.01
16.01
13.60
10.92
8.15
5.47
3.06
1.08
-0.29
-1.02
-1.22
-1.20
-1.36
-2.03
-3.26
-4.79
-6.20
-7.13
-7.47
-7.38
-7.07
-6.68
-6.10
-5.07
-3.36
-0.97
1.79
4.36
6.10
6.47
5.26
2.59
-1.13
-5.26
-9.11
-12.09
-13.77
-14.01
-12.83
-10.44
-7.05
-2.87
1.91
7.21
12.96
19.15
25.74
32.59
39.39
45.59
50.52
53.67
54.91
54.78
54.37
54.96
57.37
61.52
66.32
70.19
71.77
70.58
67.22
63.04
59.40
57.05
55.94
55.40
54.61
52.97
50.17
46.09
40.64
33.87
26.11
18.13
11.05
5.95
3.45
3.43
5.19
7.66
9.84
10.94
10.51
8.29
4.20
-1.62
-8.68
-16.16
-23.01
-28.20
-30.97
-31.02
-28.54
-24.21
-18.99
-13.99
-10.17
-8.10
-7.86
-9.03
-10.88
-12.68
-13.92
-14.35
-13.93
-12.77
-10.97
-8.67
-6.09
-3.53
-1.37
0.14
0.88
0.96
0.56
-0.12
-0.98
-1.99
-3.15
-4.50
-6.00
-7.57
-9.09
-10.40
-11.37
-11.93
-12.08
-11.97
-11.83
-11.88
-12.29
-13.11
-14.27
-15.68
-17.25
-18.99
-20.95
-23.24
-25.90
-28.86
-31.87
-34.56
-36.49
-37.27
-36.63
-34.51
-31.02
-26.40
-21.00
-15.19
-9.41
-4.03
0.66
4.50
7.49
9.75
11.44
12.77
13.83
14.71
15.41
15.98
16.40
16.70
16.86
16.88
16.70
16.29
15.64
14.72
13.60
12.32
10.97
9.65
8.38
7.16
5.94
4.69
3.35
1.92
0.41
-1.16
-2.76
-4.34
-5.89
-7.42
-8.99
-10.70
-12.73
-15.18
-18.11
-21.38
-24.70
-27.58
-29.52
-30.04
-28.95
-26.32
-22.51
-18.03
-13.39
-8.98
-5.02
-1.55
1.44
3.99
6.11
7.84
9.26
10.42
11.40
12.20
12.84
13.29
13.60
13.82
14.01
14.15
14.20
14.05
13.64
12.96
12.06
11.01
9.88
8.70
7.52
6.38
5.30
4.26
3.24
2.15
0.98
-0.28
-1.56
-2.83
-4.12
-5.52
-7.18
-9.15
-11.39
-13.73
-16.00
-18.00
-19.60
-20.66
-21.00
-20.48
-18.95
-16.41
-13.05
-9.15
-5.12
-1.30
2.01
4.63
6.45
7.49
7.85
7.77
7.53
7.38
7.47
7.78
8.16
8.43
8.48
8.31
8.01
7.70
7.47
7.33
7.22
7.04
6.71
6.11
5.18
3.88
2.20
0.18
-2.04
-4.30
-6.39
-8.14
-9.50
-10.53
-11.35
-12.10
-12.87
-13.69
-14.67
-15.91
-17.49
-19.39
-21.33
-22.83
-23.38
-22.65
-20.71
-17.88
-14.64
-11.35
-8.16
-5.07
-2.07
0.74
3.12
4.87
5.90
6.34
6.44
6.47
6.63
6.95
7.40
7.87
8.23
8.35
8.14
7.55
6.64
5.55
4.46
3.50
2.74
2.12
1.56
0.99
0.39
-0.24
-0.88
-1.57
-2.39
-3.42
-4.72
-6.28
-8.04
-9.93
-11.95
-14.10
-16.41
-18.77
-20.94
-22.56
-23.26
-22.74
-20.93
-17.97
-14.14
-9.79
-5.21
-0.72
3.40
6.83
9.32
10.79
11.37
11.43
11.39
11.61
12.22
13.16
14.22
15.16
15.84
16.23
16.36
16.29
16.03
15.57
14.91
14.10
13.23
12.41
11.63
10.79
9.66
8.02
5.79
3.09
0.26
-2.39
-4.65
-6.60
-8.48
-10.63
-13.22
-16.24
-19.49
-22.73
-25.69
-28.13
-29.78
-30.31
-29.40
-26.89
-22.87
-17.74
-12.07
-6.48
-1.47
2.68
5.84
8.05
9.42
10.17
10.55
10.81
11.19
11.75
12.46
13.20
13.81
14.21
14.39
14.30
13.96
13.38
12.65
11.95
11.43
11.18
11.16
11.24
11.33
11.43
11.69
12.17
12.77
13.15
12.90
11.80
9.99
8.03
6.60
6.18
6.83
8.18
9.78
11.40
13.26
16.04
20.55
27.36
36.61
47.99
60.79
74.10
86.77
97.60
105.54
110.10
111.66
111.53
111.53
113.22
117.15
122.57
127.67
130.42
129.33
123.98
114.95
103.39
90.47
77.05
63.54
50.02
36.43
22.71
8.92
-4.70
-17.77
-29.89
-40.83
-50.69
-59.91
-69.10
-78.64
-88.44
-97.77
-105.62
-111.09
-113.90
-114.48
-113.70
-112.38
-110.87
-108.98
-106.21
-102.19
-96.99
-91.12
-85.28
-80.08
-75.77
-72.25
-69.17
-66.17
-62.97
-59.56
-56.10
-52.89
-50.19
-48.10
-46.53
-45.24
-43.96
-42.49
-40.70
-38.48
-35.71
-32.24
-28.02
-23.20
-18.22
-13.64
-10.02
-7.69
-6.65
-6.63
-7.18
-7.89
-8.46
-8.80
-9.00
-9.27
-9.89
-11.07
-12.95
-15.52
-18.66
-22.03
-25.14
-27.38
-28.20
-27.18
-24.28
-19.80
-14.39
-8.82
-3.66
0.88
4.92
8.78
12.70
16.66
20.36
23.34
25.19
25.86
25.63
24.93
24.01
22.88
21.31
19.09
16.12
12.50
8.44
4.28
0.31
-3.27
-5.95
-6.87
-4.92
0.62
9.47
20.09
29.88
35.86
35.37
28.44
17.31
6.43
0.42
1.50
8.62
18.68
28.00
33.34
33.48
29.18
22.57
16.01
11.19
8.37
7.26
7.07
6.06
2.74
-3.81
-13.64
-26.03
-39.39
-51.34
-58.87
-56.26
-43.05
-24.17
-7.69
-0.47
-4.72
-17.08
-31.28
-41.04
-42.74
-36.63
-25.12
-10.58
6.31
26.55
51.50
79.18
104.90
123.11
129.38
122.44
104.53
80.24
54.72
31.96
14.09
2.16
-4.89
-8.15
-8.70
-7.58
-5.67
-3.53
-1.32
0.98
3.51
5.90
7.43
6.78
2.72
-5.09
-15.76
-27.33
-37.56
-44.42
-46.74
-44.24
-37.67
-28.48
-18.53
-9.89
-4.48
-3.81
-8.44
-17.74
-29.81
-41.78
-50.37
-52.71
-47.27
-34.62
-17.53
-0.15
13.53
21.23
23.12
21.48
19.44
19.41
22.10
26.55
31.04
34.21
35.74
36.19
36.37
36.61
36.53
35.30
32.23
27.26
21.17
15.23
10.75
8.68
9.61
13.75
21.00
30.64
41.12
50.12
55.10
54.31
47.62
36.57
23.63
10.73
-1.73
-15.15
-31.56
-51.93
-74.79
-96.11
-110.47
-113.04
-101.41
-76.50
-42.42
-5.20
28.88
54.86
70.13
74.65
70.41
60.30
47.15
33.08
19.50
7.53
-1.80
-7.63
-9.85
-9.56
-9.18
-11.69
-19.44
-32.99
-50.76
-69.39
-84.83
-93.71
-94.38
-87.37
-75.03
-60.67
-47.47
-37.60
-31.76
-29.35
-29.04
-29.41
-29.41
-28.42
-26.17
-22.53
-17.54
-11.48
-4.89
1.47
6.85
10.74
13.02
13.84
13.48
12.20
10.17
7.51
4.38
1.04
-2.20
-5.03
-7.20
-8.57
-9.15
-9.07
-8.60
-8.15
-8.08
-8.57
-9.56
-10.74
-11.61
-11.69
-10.67
-8.52
-5.51
-2.24
0.61
2.47
3.12
2.80
2.06
1.60
1.84
2.75
3.90
4.78
5.18
5.42
6.35
9.06
14.59
23.60
36.10
51.24
67.25
81.72
92.22
97.03
95.86
89.78
80.75
70.68
60.66
50.85
40.80
30.22
19.31
8.68
-1.12
-9.90
-17.81
-24.94
-30.90
-34.92
-36.19
-34.50
-30.53
-25.85
-22.43
-22.08
-25.94
-34.11
-45.55
-58.15
-69.08
-75.45
-75.15
-67.51
-53.51
-35.44
-16.19
1.55
15.83
25.57
30.49
30.94
27.78
22.34
16.14
10.69
7.14
6.05
7.38
10.61
15.05
19.94
24.59
28.28
30.36
30.37
28.21
24.27
19.41
14.73
11.22
9.48
9.62
11.36
14.30
18.03
22.25
26.57
30.42
33.02
33.59
31.68
27.42
21.44
14.65
7.91
1.71
-3.89
-9.05
-13.90
-18.30
-21.86
-24.13
-24.76
-23.68
-21.09
-17.39
-13.00
-8.30
-3.61
0.88
5.04
8.91
12.64
16.39
20.20
23.81
26.74
28.45
28.71
27.74
26.21
24.85
24.00
23.36
22.14
19.43
14.67
7.91
-0.36
-9.53
-19.15
-28.90
-38.31
-46.59
-52.70
-55.83
-55.83
-53.35
-49.57
-45.52
-41.70
-37.95
-33.77
-28.81
-23.06
-16.81
-10.40
-4.10
1.88
7.20
11.28
13.43
13.25
10.86
7.05
2.92
-0.43
-2.36
-2.69
-1.77
-0.13
1.71
3.42
5.00
6.68
8.78
11.56
15.09
19.28
23.97
29.02
34.40
40.09
45.99
51.80
57.07
61.34
64.35
66.07
66.60
65.90
63.65
59.20
51.81
41.07
27.10
10.73
-6.86
-24.34
-40.68
-55.18
-67.30
-76.42
-81.69
-82.29
-78.00
-69.64
-59.18
-49.10
-41.48
-37.16
-35.39
-34.39
-32.31
-28.24
-22.54
-16.43
-11.28
-7.84
-6.03
-5.28
-5.11
-5.59
-7.29
-10.94
-16.83
-24.51
-32.76
-40.02
-44.94
-46.74
-45.39
-41.24
-34.74
-26.20
-15.90
-4.30
7.72
18.92
28.08
34.57
38.61
41.19
43.59
46.71
50.74
55.22
59.47
63.05
65.94
68.45
70.80
72.87
74.19
74.11
72.16
68.13
62.09
54.28
44.94
34.38
22.89
10.87
-1.23
-12.96
-23.92
-33.83
-42.58
-50.31
-57.38
-64.29
-71.37
-78.49
-85.00
-90.08
-93.26
-94.86
-95.97
-97.92
-101.43
-105.94
-109.65
-110.11
-105.24
-94.07
-76.94
-55.00
-29.56
-1.72
27.46
56.47
82.97
104.15
117.53
122.10
118.85
110.50
100.39
91.41
85.23
82.35
82.67
86.05
92.40
101.22
111.04
119.16
122.22
117.30
103.08
80.46
52.48
23.57
-1.63
-19.51
-28.40
-28.94
-23.85
-17.01
-12.32
-12.66
-19.38
-32.18
-49.59
-69.53
-89.71
-107.93
-122.19
-130.89
-133.01
-128.49
-118.15
-103.43
-85.97
-67.13
-47.87
-28.70
-9.93
8.05
24.54
38.49
48.70
54.22
54.72
50.70
43.41
34.37
24.93
15.90
7.59
0.11
-6.31
-11.27
-14.21
-14.81
-13.14
-9.69
-5.18
-0.33
4.28
8.24
11.30
13.33
14.29
14.29
13.53
12.22
10.54
8.55
6.25
3.70
0.97
-1.77
-4.47
-7.22
-10.32
-14.09
-18.74
-24.15
-29.89
-35.26
-39.61
-42.42
-43.50
-42.93
-41.02
-38.16
-34.75
-31.12
-27.44
-23.76
-19.85
-15.31
-9.58
-2.07
7.57
19.34
32.67
46.43
59.14
69.38
76.23
79.50
79.71
77.74
74.43
70.23
65.21
59.18
52.09
44.12
35.84
27.95
21.14
15.88
12.26
10.04
8.64
7.35
5.59
3.09
-0.01
-3.32
-6.40
-8.96
-10.91
-12.21
-12.74
-12.32
-10.86
-8.53
-5.86
-3.55
-2.06
-1.46
-1.24
-0.60
1.21
4.62
9.67
16.11
23.52
31.38
39.08
45.92
51.23
54.56
55.86
55.40
53.63
50.86
47.20
42.55
36.91
30.47
23.68
17.02
10.76
4.94
-0.58
-5.78
-10.39
-13.97
-16.28
-17.70
-19.15
-21.80
-26.39
-32.85
-40.30
-47.47
-53.21
-56.97
-58.79
-59.12
-58.42
-56.92
-54.70
-51.84
-48.71
-45.87
-44.02
-43.68
-44.91
-47.12
-49.16
-49.73
-47.88
-43.39
-36.63
-28.47
-20.13
-12.77
-7.16
-3.59
-1.98
-2.06
-3.59
-6.10
-9.39
-14.05
-21.28
-32.12
-46.83
-64.56
-83.51
-101.58
-116.37
-126.33
-131.68
-134.15
-135.86
-138.13
-140.89
-142.65
-140.87
-131.83
-112.27
-81.08
-39.69
8.57
59.44
108.44
151.51
180.28
188.41
177.16
154.44
129.34
107.87
91.84
79.84
68.98
56.97
44.39
34.16
29.05
30.30
37.25
47.52
57.87
65.29
67.99
66.47
62.66
58.31
54.21
50.26
46.05
41.27
36.38
32.13
29.68
29.88
32.63
36.89
41.21
44.30
45.53
44.95
43.06
40.62
38.06
35.08
30.84
24.64
16.48
7.23
-1.72
-9.11
-14.31
-17.53
-19.71
-21.92
-24.91
-28.75
-33.01
-37.04
-40.29
-42.40
-43.12
-42.28
-39.80
-35.74
-30.37
-24.19
-17.80
-11.77
-6.49
-2.14
1.35
4.11
6.31
8.07
9.42
10.34
10.78
10.67
10.00
8.82
7.19
5.29
3.38
1.87
1.18
1.66
3.42
6.29
9.87
13.64
17.05
19.63
20.98
20.85
19.13
15.96
11.66
6.65
1.30
-4.19
-9.77
-15.44
-21.03
-26.19
-30.36
-32.97
-33.63
-32.24
-29.03
-24.46
-19.03
-13.32
-7.87
-3.19
0.26
2.22
2.72
2.16
1.20
0.55
0.69
1.64
3.00
4.14
4.46
3.73
2.09
-0.08
-2.26
-3.98
-4.97
-5.22
-5.03
-4.86
-5.16
-6.31
-8.46
-11.51
-15.13
-18.96
-22.74
-26.36
-29.78
-32.93
-35.74
-38.30
-40.76
-43.22
-45.67
-47.97
-49.94
-51.28
-51.72
-51.13
-49.97
-48.64
-47.23
-45.55
-43.48
-41.12
-38.86
-37.19
-36.61
-38.18
-42.06
-47.02
-50.86
-51.49
-47.91
-40.46
-30.46
-19.81
-11.48
-7.17
-6.68
-8.62
-11.70
-15.50
-20.21
-25.93
-32.73
-42.09
-54.64
-69.51
-84.68
-98.16
-108.72
-115.90
-119.59
-108.47
-78.13
-33.27
15.24
58.15
91.39
114.48
127.79
134.22
135.55
131.30
121.43
107.05
89.99
71.91
54.06
37.46
23.45
13.14
6.16
2.28
1.71
4.74
11.04
19.21
27.35
33.85
37.66
37.83
34.61
29.23
23.31
17.96
13.48
9.67
6.38
3.57
0.97
-1.58
-4.13
-6.72
-9.53
-12.79
-16.60
-20.83
-25.23
-29.63
-33.82
-37.54
-40.42
-42.09
-42.21
-40.54
-37.04
-31.90
-25.60
-18.78
-12.15
-6.34
-1.71
1.62
3.84
5.26
6.24
7.08
7.92
8.76
9.48
9.95
10.06
9.82
9.30
8.62
7.87
7.02
5.94
4.45
2.40
-0.22
-3.24
-6.35
-9.27
-11.82
-14.03
-16.10
-18.32
-20.96
-24.23
-28.22
-32.97
-38.30
-43.82
-48.89
-52.68
-54.42
-53.60
-50.17
-44.49
-37.21
-29.00
-20.39
-11.75
-3.42
4.17
10.53
15.27
18.29
19.84
20.47
20.75
21.05
21.46
21.88
22.17
22.27
22.14
21.71
20.79
19.13
16.55
13.00
8.61
3.54
-2.08
-8.21
-14.77
-21.57
-28.28
-34.50
-39.94
-44.53
-48.38
-51.62
-54.13
-55.47
-54.94
-51.83
-45.69
-36.57
-24.96
-11.67
2.42
16.52
30.03
42.47
53.45
62.53
69.31
73.49
74.99
74.10
71.46
67.96
64.49
61.69
59.85
58.86
58.37
57.98
57.35
56.22
54.44
51.93
48.70
44.91
40.82
36.74
32.90
29.33
25.77
21.83
17.09
11.22
4.05
-4.32
-13.55
-23.08
-32.16
-40.06
-46.16
-50.20
-52.19
-52.39
-51.12
-48.59
-44.87
-39.88
-33.54
-25.97
-17.56
-9.04
-1.35
4.59
8.16
9.34
8.65
6.98
5.24
3.98
3.33
3.14
3.26
3.76
4.94
7.09
10.20
13.78
17.10
19.47
20.59
20.79
20.77
21.26
22.69
25.01
27.80
30.55
32.81
34.35
35.20
35.67
36.45
38.58
43.24
51.21
62.40
75.68
89.24
101.34
111.05
118.44
124.19
128.89
132.58
134.76
134.89
132.85
129.01
123.98
118.13
111.38
103.47
94.32
84.38
74.43
65.31
57.42
50.63
44.48
38.44
32.12
25.28
17.82
9.85
1.75
-5.86
-12.30
-17.26
-21.02
-24.46
-28.69
-34.49
-42.02
-50.82
-60.18
-69.49
-78.49
-87.18
-95.49
-103.06
-109.10
-112.68
-112.99
-109.63
-102.72
-92.97
-81.50
-69.71
-59.17
-51.36
-47.36
-47.28
-49.80
-52.08
-50.32
-41.15
-23.11
2.32
30.89
56.99
75.79
84.86
84.87
78.70
69.84
60.93
53.02
45.89
38.95
32.04
25.62
20.46
16.99
14.94
13.32
10.89
6.72
0.59
-7.13
-15.71
-24.47
-32.94
-40.79
-47.64
-52.97
-56.11
-56.49
-53.87
-48.41
-40.51
-30.54
-18.61
-4.57
11.66
29.81
49.03
67.96
85.11
99.27
109.73
116.35
119.35
119.08
115.95
110.40
103.02
94.42
85.14
75.47
65.43
54.86
43.62
31.67
19.03
5.76
-8.01
-22.01
-35.81
-48.89
-60.89
-71.82
-82.05
-92.16
-102.53
-113.18
-123.70
-133.44
-141.78
-148.29
-152.71
-154.88
-154.62
-151.77
-146.29
-138.35
-128.36
-116.98
-105.01
-93.24
-82.35
-72.71
-64.34
-56.94
-49.91
-42.62
-34.57
-25.58
-15.80
-5.67
4.23
13.37
21.48
28.55
34.81
40.57
45.99
51.06
55.52
59.08
61.59
63.15
64.06
64.62
64.97
64.96
64.27
62.62
59.96
56.51
52.62
48.55
44.40
40.10
35.70
31.47
27.94
25.65
24.92
25.71
27.68
30.43
33.68
37.30
41.24
45.29
49.02
51.77
52.92
52.12
49.44
45.41
40.78
36.26
32.21
28.64
25.32
22.06
18.96
16.47
15.12
15.20
16.38
17.76
18.21
16.84
13.39
8.33
2.57
-3.00
-7.86
-11.98
-15.63
-19.09
-22.39
-25.38
-27.78
-29.46
-30.49
-31.03
-31.14
-30.62
-28.98
-25.68
-20.43
-13.39
-5.26
2.94
10.17
15.60
18.82
19.83
18.98
16.90
14.25
11.66
9.50
7.89
6.77
5.93
5.32
5.00
5.12
5.80
7.02
8.59
10.20
11.48
12.12
11.83
10.39
7.63
3.63
-1.23
-6.15
-9.94
-11.40
-9.67
-4.71
2.52
10.34
16.86
20.68
21.42
19.69
16.77
13.93
11.99
11.14
11.27
12.27
14.20
17.20
21.13
25.38
28.92
30.74
30.29
27.83
24.26
20.70
17.95
16.08
14.55
12.65
9.84
6.16
2.04
-1.90
-5.34
-8.29
-11.14
-14.35
-18.25
-22.87
-27.99
-33.30
-38.50
-43.47
-48.17
-52.66
-56.99
-61.17
-65.21
-69.04
-72.51
-75.40
-77.43
-78.35
-78.01
-76.41
-73.61
-69.81
-65.18
-60.03
-54.69
-49.55
-44.98
-41.18
-38.13
-35.57
-33.16
-30.59
-27.71
-24.56
-21.33
-18.15
-15.11
-12.22
-9.47
-6.89
-4.53
-2.53
-0.91
0.37
1.43
2.49
3.72
5.16
6.72
8.17
9.24
9.81
9.96
9.94
10.02
10.36
10.90
11.48
11.93
12.28
12.76
13.76
15.58
18.30
21.59
24.75
26.87
26.97
24.32
18.55
9.76
-1.50
-14.36
-27.89
-41.30
-54.17
-66.55
-78.87
-91.64
-105.09
-118.83
-131.73
-142.13
-148.24
-148.65
-142.89
-131.51
-116.10
-98.89
-82.23
-67.93
-56.88
-48.87
-42.89
-37.74
-32.73
-27.96
-24.16
-21.98
-21.40
-21.46
-20.67
-17.73
-12.19
-4.60
3.94
12.44
20.40
27.76
34.59
40.63
45.33
48.09
48.63
47.20
44.43
41.10
37.81
34.93
32.60
30.90
29.76
29.07
28.60
28.10
27.26
25.62
22.59
17.53
10.15
0.90
-8.81
-17.10
-22.47
-24.57
-24.50
-24.12
-24.85
-26.67
-27.92
-26.10
-19.26
-7.08
8.92
26.02
41.46
53.44
61.51
66.23
68.49
68.90
67.58
64.45
59.55
53.32
46.51
39.75
33.25
26.66
19.37
10.95
1.48
-8.49
-18.31
-27.65
-36.62
-45.54
-54.35
-62.34
-68.39
-71.58
-71.94
-70.76
-70.23
-72.54
-78.91
-88.85
-100.33
-110.48
-116.55
-116.72
-110.49
-98.56
-82.62
-65.03
-48.30
-34.43
-24.09
-16.12
-7.74
4.36
22.32
45.93
72.43
97.64
117.81
131.06
137.70
139.36
137.64
133.32
126.43
117.10
106.35
96.15
88.62
84.99
84.87
86.34
86.85
84.44
78.49
69.88
60.42
52.07
46.17
43.20
42.79
43.98
45.51
46.07
44.59
40.68
35.14
30.01
28.11
31.86
42.00
56.87
72.65
84.71
89.44
85.54
74.26
58.56
41.67
25.86
12.04
0.19
-10.04
-18.82
-26.22
-32.35
-37.71
-42.93
-48.30
-53.36
-56.73
-56.78
-52.45
-44.16
-33.90
-24.74
-19.73
-20.61
-27.12
-37.15
-47.62
-55.72
-59.80
-59.67
-56.47
-52.04
-48.08
-45.57
-44.52
-44.41
-44.52
-44.21
-42.71
-39.32
-33.67
-25.79
-16.17
-5.72
4.11
11.63
15.49
15.41
11.94
5.92
-1.80
-10.36
-18.83
-26.51
-32.85
-37.00
-37.28
-32.05
-20.99
-5.64
10.70
23.99
30.23
27.08
13.31
-7.14
-25.28
-32.16
-24.97
-8.09
10.55
24.55
31.13
30.50
25.16
17.96
10.57
3.42
-4.50
-12.47
-19.15
-23.39
-24.55
-22.48
-17.81
-11.94
-6.35
-1.76
2.36
6.90
12.58
19.59
28.07
38.32
51.08
67.70
89.68
117.76
150.69
185.13
216.77
242.11
259.28
268.12
269.34
263.84
252.49
236.34
217.00
196.60
176.90
158.04
137.89
112.71
78.83
34.83
-17.42
-73.00
-125.68
-169.92
-202.72
-224.17
-236.70
-243.60
-247.59
-250.02
-251.00
-250.09
-247.06
-242.19
-235.88
-228.20
-218.60
-206.12
-190.06
-170.63
-148.99
-127.00
-106.42
-88.37
-73.08
-60.08
-48.63
-38.15
-28.37
-19.30
-11.01
-3.52
3.23
9.29
14.61
19.13
22.91
26.36
30.15
35.08
41.60
49.59
58.33
66.82
74.15
79.96
84.43
88.10
91.57
95.14
98.77
102.04
104.34
104.90
102.98
97.95
89.48
77.67
63.05
46.46
28.94
11.53
-4.85
-19.46
-31.87
-41.94
-49.84
-55.90
-60.42
-63.43
-64.64
-63.53
-59.58
-52.60
-42.93
-31.43
-19.37
-8.04
1.59
9.10
14.69
18.94
22.45
25.46
27.80
29.02
28.76
26.95
23.86
19.88
15.38
10.58
5.63
0.69
-3.98
-8.15
-11.62
-14.35
-16.37
-17.73
-18.45
-18.63
-18.49
-18.40
-18.72
-19.67
-21.22
-23.14
-25.19
-27.28
-29.52
-32.06
-34.92
-37.80
-40.10
-41.13
-40.40
-37.75
-33.45
-27.98
-21.83
-15.33
-8.70
-2.16
3.91
8.98
12.56
14.46
14.93
14.57
14.11
14.02
14.36
14.88
15.16
14.86
13.82
12.09
9.81
7.17
4.40
1.69
-0.79
-2.99
-4.93
-6.69
-8.28
-9.56
-10.28
-10.29
-9.65
-8.79
-8.35
-8.96
-11.00
-14.40
-18.69
-23.08
-26.67
-28.55
-28.08
-24.95
-19.35
-11.96
-3.91
3.55
9.36
12.88
14.13
13.68
12.56
11.93
12.72
15.29
19.30
23.87
27.97
31.00
33.03
34.82
37.26
40.89
45.41
49.94
53.40
55.09
54.96
53.51
51.40
49.12
46.88
44.73
42.77
41.18
40.11
39.42
38.61
36.87
33.43
27.92
20.62
12.37
4.25
-2.90
-8.79
-13.88
-19.23
-26.11
-35.53
-47.76
-62.04
-76.59
-89.09
-97.29
-99.76
-96.34
-88.06
-76.72
-64.21
-51.82
-40.12
-29.10
-18.54
-8.47
0.84
8.95
15.59
20.74
24.64
27.55
29.60
30.69
30.64
29.37
27.08
24.22
21.35
18.90
17.00
15.49
14.07
12.47
10.53
8.25
5.68
2.95
0.20
-2.35
-4.45
-5.95
-6.94
-7.70
-8.67
-10.28
-12.71
-15.87
-19.45
-23.09
-26.49
-29.44
-31.67
-32.80
-32.41
-30.17
-26.08
-20.53
-14.18
-7.76
-1.73
3.76
8.87
13.79
18.61
23.14
27.02
29.82
31.20
31.08
29.70
27.53
25.21
23.33
22.25
21.95
22.14
22.35
22.21
21.56
20.47
19.10
17.57
15.81
13.65
10.92
7.60
3.90
0.17
-3.28
-6.35
-9.17
-12.04
-15.29
-19.04
-23.15
-27.17
-30.48
-32.50
-32.86
-31.47
-28.56
-24.54
-19.90
-15.03
-10.18
-5.39
-0.60
4.26
9.17
13.92
18.16
21.47
23.57
24.44
24.37
23.89
23.48
23.45
23.70
23.83
23.36
21.98
19.73
16.94
14.03
11.28
8.71
6.13
3.32
0.14
-3.33
-6.92
-10.46
-13.84
-17.09
-20.26
-23.44
-26.70
-30.12
-33.70
-37.31
-40.62
-43.06
-43.94
-42.66
-38.91
-32.78
-24.70
-15.33
-5.29
4.96
15.15
25.18
35.03
44.64
53.88
62.50
70.09
76.20
80.44
82.63
82.93
81.72
79.41
76.27
72.36
67.58
61.87
55.40
48.49
41.51
34.63
27.74
20.60
13.05
5.19
-2.53
-9.54
-15.45
-20.17
-24.10
-27.89
-32.24
-37.51
-43.58
-49.77
-55.06
-58.46
-59.31
-57.55
-53.68
-48.50
-42.79
-37.02
-31.39
-25.91
-20.65
-15.87
-11.91
-9.05
-7.29
-6.38
-5.90
-5.49
-5.08
-4.78
-4.82
-5.31
-6.14
-7.06
-7.89
-8.63
-9.48
-10.74
-12.61
-15.10
-18.02
-21.11
-24.14
-26.98
-29.55
-31.91
-34.16
-36.58
-39.53
-43.31
-47.97
-53.14
-58.04
-61.69
-63.31
-62.59
-59.88
-55.92
-51.56
-47.41
-43.62
-40.04
-36.35
-32.37
-28.10
-23.59
-18.85
-13.74
-8.16
-2.13
4.17
10.51
16.85
23.45
30.66
38.72
47.44
56.10
63.72
69.48
73.06
74.71
75.01
74.52
73.50
71.83
69.07
64.72
58.47
50.36
40.84
30.67
20.74
12.03
5.31
1.02
-0.80
-0.43
1.62
4.68
7.97
10.77
12.91
14.52
15.85
17.01
17.98
18.63
18.79
18.26
16.90
15.44
14.68
14.88
15.55
15.80
15.00
13.03
10.10
6.57
3.93
3.26
4.60
6.97
9.28
11.12
12.91
15.35
19.01
25.67
36.61
51.71
69.49
88.01
105.85
122.33
137.18
141.31
128.87
100.26
62.68
24.66
-9.05
-37.43
-60.64
-78.40
-89.18
-90.11
-79.82
-60.20
-36.35
-14.55
-0.06
4.22
-2.64
-19.86
-41.05
-58.29
-64.05
-53.41
-26.15
12.57
53.24
84.06
96.72
91.53
73.55
50.11
27.74
9.13
-7.51
-26.75
-54.23
-91.31
-131.79
-167.96
-192.86
-202.00
-194.68
-173.48
-133.73
-78.51
-25.40
22.13
65.48
102.00
127.27
137.41
131.51
112.75
86.18
58.55
38.14
26.67
22.20
22.24
25.45
32.03
42.74
56.15
69.58
80.84
86.45
84.23
74.89
61.34
47.04
34.39
23.52
13.93
6.20
0.43
-3.30
-4.83
-4.47
-3.18
-2.13
-2.58
-4.84
-7.83
-10.55
-12.29
-12.87
-12.73
-12.74
-13.77
-16.32
-20.09
-23.91
-26.56
-27.10
-25.22
-21.33
-16.46
-11.78
-8.28
-6.48
-6.42
-7.81
-10.22
-13.27
-16.76
-20.71
-25.26
-30.49
-36.30
-42.21
-47.42
-50.96
-52.08
-50.62
-47.09
-42.52
-38.06
-34.53
-32.18
-30.74
-29.71
-28.62
-27.24
-25.58
-23.80
-22.10
-20.65
-19.60
-19.11
-19.35
-20.46
-22.49
-25.31
-28.70
-32.37
-36.05
-39.55
-42.78
-45.75
-48.57
-51.40
-54.39
-57.62
-60.99
-64.22
-66.88
-68.55
-68.91
-67.76
-64.97
-60.34
-53.50
-44.13
-32.16
-17.97
-2.45
13.26
28.02
40.99
51.65
59.75
65.17
67.94
68.28
66.68
63.88
60.72
57.84
55.65
54.28
53.74
53.99
54.93
56.41
58.14
59.72
60.76
60.99
60.27
58.68
56.33
53.35
49.82
45.77
41.21
36.16
30.74
25.17
19.85
15.25
11.77
9.58
8.48
7.96
7.37
6.21
4.27
1.64
-1.40
-4.63
-7.89
-11.14
-14.21
-16.90
-18.95
-20.25
-20.88
-21.20
-21.62
-22.45
-23.77
-25.39
-26.96
-28.16
-28.82
-29.00
-28.97
-29.12
-29.75
-30.99
-32.58
-34.06
-34.85
-34.52
-32.91
-30.18
-26.65
-22.59
-18.15
-13.25
-7.77
-1.62
5.14
12.16
18.92
24.76
29.15
31.77
32.68
32.21
30.88
29.11
27.10
24.76
21.89
18.33
14.17
9.79
5.65
2.16
-0.54
-2.61
-4.32
-6.05
-8.09
-10.68
-13.88
-17.59
-21.39
-24.63
-26.51
-26.37
-24.06
-19.99
-15.07
-10.25
-6.30
-3.50
-1.80
-1.01
-1.05
-2.00
-3.95
-6.83
-10.35
-14.08
-17.56
-20.54
-22.93
-24.79
-26.19
-27.15
-27.63
-27.58
-26.97
-25.90
-24.57
-23.26
-22.27
-21.80
-21.87
-22.33
-22.90
-23.27
-23.22
-22.63
-21.43
-19.49
-16.60
-12.59
-7.48
-1.57
4.58
10.36
15.33
19.29
22.32
24.53
25.98
26.60
26.30
25.15
23.45
21.65
20.13
19.01
18.11
17.09
15.69
13.88
11.92
10.09
8.58
7.36
6.19
4.90
3.38
1.70
-0.04
-1.80
-3.66
-5.73
-7.98
-10.16
-11.84
-12.64
-12.36
-11.14
-9.26
-7.07
-4.81
-2.60
-0.60
0.95
1.63
1.12
-0.67
-3.45
-6.60
-9.40
-11.27
-12.00
-11.62
-10.40
-8.65
-6.64
-4.63
-2.85
-1.46
-0.49
0.12
0.48
0.62
0.53
0.08
-0.79
-1.93
-2.96
-3.27
-2.33
0.17
4.15
9.15
14.47
19.40
23.43
26.34
28.25
29.55
30.63
31.73
32.77
33.44
33.30
32.10
29.91
27.10
24.13
21.36
18.81
16.22
13.24
9.60
5.37
0.88
-3.44
-7.18
-10.17
-12.47
-14.34
-16.07
-17.90
-19.91
-22.05
-24.16
-26.03
-27.48
-28.31
-28.43
-27.78
-26.41
-24.36
-21.71
-18.56
-15.03
-11.31
-7.65
-4.38
-1.82
-0.23
0.30
-0.14
-1.26
-2.72
-4.23
-5.69
-7.19
-8.88
-10.92
-13.25
-15.58
-17.49
-18.58
-18.73
-18.15
-17.41
-17.14
-17.83
-19.52
-21.90
-24.43
-26.69
-28.54
-30.21
-32.06
-34.40
-37.33
-40.77
-44.54
-48.40
-52.00
-54.76
-55.85
-54.43
-49.93
-42.34
-32.28
-20.79
-8.95
2.46
13.03
22.60
31.06
38.25
43.90
47.80
49.94
50.44
49.65
47.89
45.48
42.62
39.41
35.90
32.11
28.13
24.06
20.09
16.40
13.06
10.03
7.11
4.09
0.78
-2.87
-6.78
-10.79
-14.73
-18.44
-21.89
-25.06
-28.02
-30.87
-33.68
-36.47
-39.14
-41.51
-43.40
-44.69
-45.35
-45.38
-44.64
-42.84
-39.66
-34.87
-28.55
-21.20
-13.49
-6.15
0.38
5.96
10.68
14.63
17.72
19.65
20.07
18.84
16.12
12.51
8.94
6.58
6.70
10.68
19.88
35.25
56.91
83.61
112.64
140.17
162.22
175.67
179.03
172.74
158.72
139.79
118.70
97.74
78.41
61.53
47.49
36.42
28.48
23.73
22.14
23.32
26.34
29.66
31.36
29.45
22.19
8.59
-11.35
-36.40
-64.09
-91.00
-113.45
-128.43
-134.40
-131.75
-122.64
-110.23
-97.64
-87.04
-79.21
-73.70
-69.41
-65.22
-60.42
-54.75
-48.30
-41.27
-33.83
-26.17
-18.46
-10.85
-3.52
3.27
8.92
12.33
11.92
6.04
-6.42
-25.30
-48.75
-73.35
-94.91
-109.56
-114.79
-110.12
-97.20
-79.17
-59.80
-42.51
-29.53
-21.50
-17.57
-15.91
-14.43
-11.49
-6.38
0.70
8.88
17.08
24.49
30.66
35.54
39.25
41.92
43.71
44.87
45.80
46.96
48.70
50.95
53.28
55.02
55.65
55.01
53.37
51.21
49.09
47.43
46.48
46.29
46.72
47.50
48.28
48.89
49.48
50.62
53.11
57.56
64.00
71.78
79.69
86.21
89.66
88.45
81.22
67.38
47.44
23.22
-2.62
-27.30
-48.80
-66.33
-80.22
-91.32
-100.40
-107.76
-113.22
-116.41
-117.10
-115.39
-111.87
-107.54
-103.54
-100.49
-98.05
-94.58
-87.74
-75.56
-57.60
-35.44
-12.15
8.99
25.79
37.64
45.10
49.05
50.12
48.82
46.23
44.35
45.61
51.69
62.28
74.69
84.77
88.77
84.89
74.08
59.35
44.36
32.09
24.09
20.54
20.72
23.38
26.96
29.62
29.57
25.53
17.34
6.22
-5.50
-15.09
-20.42
-20.64
-16.43
-9.45
-1.66
5.44
11.11
15.19
17.84
19.10
18.88
17.13
14.06
10.13
5.86
1.52
-3.00
-8.13
-14.29
-21.51
-29.24
-36.43
-41.89
-44.67
-44.32
-41.01
-35.31
-28.01
-19.77
-10.90
-1.45
8.61
19.07
29.18
37.73
43.33
44.81
41.60
33.84
22.25
7.96
-7.59
-22.64
-35.28
-43.72
-46.83
-44.58
-38.25
-30.05
-22.26
-16.51
-13.19
-11.75
-11.13
-10.51
-9.61
-8.61
-7.82
-7.46
-7.49
-7.69
-7.85
-7.85
-7.71
-7.52
-7.36
-7.35
-7.50
-7.83
-8.29
-8.82
-9.34
-9.74
-9.89
-9.59
-8.71
-7.24
-5.39
-3.55
-2.15
-1.40
-1.22
-1.41
-1.72
-2.04
-2.28
-2.21
-1.31
1.04
5.25
11.27
18.39
25.54
31.55
35.49
36.73
35.01
30.56
24.23
17.59
12.66
11.19
13.82
19.63
26.31
31.21
32.46
29.63
23.80
16.79
10.35
5.51
2.58
1.35
1.36
2.09
2.90
3.23
2.65
1.20
-0.58
-1.78
-1.69
-0.27
1.58
2.39
0.90
-3.20
-8.94
-14.44
-17.79
-17.99
-15.33
-11.10
-6.70
-3.04
-0.24
1.99
3.77
4.80
4.49
2.58
-0.56
-3.95
-6.54
-7.92
-8.45
-9.15
-11.06
-14.74
-20.06
-26.28
-32.47
-37.70
-41.36
-43.10
-43.00
-41.43
-38.98
-36.26
-33.61
-31.04
-28.31
-25.23
-21.83
-18.49
-15.61
-13.39
-11.57
-9.57
-6.81
-3.07
1.33
5.68
9.17
11.22
11.69
10.81
9.04
6.86
4.79
3.26
2.61
2.92
4.04
5.52
6.80
7.40
7.10
6.03
4.50
2.81
1.08
-0.86
-3.18
-6.00
-9.14
-12.23
-14.79
-16.50
-17.32
-17.50
-17.48
-17.63
-18.18
-19.07
-20.02
-20.62
-20.52
-19.54
-17.62
-14.90
-11.57
-7.87
-4.06
-0.45
2.72
5.18
6.80
7.53
7.45
6.70
5.43
3.79
1.95
0.07
-1.67
-3.16
-4.31
-5.15
-5.75
-6.16
-6.37
-6.35
-6.12
-5.80
-5.65
-5.90
-6.68
-7.89
-9.17
-10.04
-10.03
-8.98
-6.91
-4.11
-0.86
2.58
6.04
9.44
12.74
15.92
18.92
21.76
24.41
26.80
28.81
30.25
30.94
30.75
29.68
27.86
25.52
22.96
20.50
18.37
16.73
15.57
14.78
14.17
13.57
12.87
11.99
10.89
9.47
7.58
5.03
1.74
-2.24
-6.61
-10.90
-14.65
-17.48
-19.33
-20.35
-20.94
-21.54
-22.55
-24.26
-26.76
-29.92
-33.48
-36.98
-39.90
-41.68
-41.87
-40.21
-36.69
-31.60
-25.45
-18.82
-12.26
-6.19
-0.83
3.67
7.30
10.10
12.24
13.94
15.49
17.03
18.55
19.82
20.46
20.16
18.86
16.75
14.22
11.68
9.34
7.16
4.93
2.42
-0.51
-3.76
-7.08
-10.17
-12.84
-14.98
-16.58
-17.64
-18.19
-18.34
-18.38
-18.70
-19.71
-21.53
-23.86
-26.01
-27.12
-26.46
-23.74
-19.14
-13.21
-6.69
-0.24
5.55
10.26
13.63
15.63
16.47
16.56
16.45
16.54
17.05
17.90
18.91
19.79
20.32
20.33
19.74
18.55
16.90
15.03
13.29
11.91
10.94
10.23
9.50
8.51
7.20
5.64
4.00
2.37
0.74
-1.01
-3.09
-5.67
-8.86
-12.60
-16.68
-20.65
-23.96
-26.03
-26.48
-25.18
-22.28
-18.15
-13.16
-7.66
-1.89
3.91
9.41
14.26
18.07
20.63
21.96
22.34
22.22
22.04
22.04
22.27
22.63
22.91
22.99
22.78
22.31
21.62
20.82
20.13
19.76
19.87
20.43
21.22
21.84
21.89
21.15
19.65
17.57
15.13
12.35
9.02
4.71
-0.91
-7.85
-15.59
-23.06
-28.94
-32.02
-31.58
-27.57
-20.68
-11.99
-2.77
5.88
13.14
18.57
22.04
23.70
24.02
23.57
23.04
23.05
24.02
25.98
28.64
31.31
33.15
33.35
31.48
27.64
22.43
16.88
12.09
8.99
8.08
9.29
12.02
15.34
18.23
19.92
20.03
18.65
16.15
12.87
8.90
4.14
-1.59
-8.17
-15.06
-21.44
-26.51
-29.87
-31.69
-32.50
-32.89
-33.12
-33.02
-32.23
-30.44
-27.68
-24.38
-21.09
-18.26
-16.05
-14.22
-12.36
-10.05
-7.02
-3.22
1.17
5.87
10.52
14.72
18.16
20.54
21.75
21.78
20.91
19.55
18.16
17.09
16.38
15.77
14.77
12.96
10.15
6.51
2.46
-1.54
-5.26
-8.70
-12.06
-15.57
-19.24
-22.88
-26.08
-28.35
-29.26
-28.45
-25.81
-21.43
-15.72
-9.28
-2.85
2.92
7.60
11.13
13.74
15.84
17.89
20.24
23.00
26.05
29.07
31.63
33.29
33.71
32.75
30.48
27.20
23.38
19.50
15.97
13.02
10.69
8.84
7.18
5.36
3.03
-0.11
-4.23
-9.26
-14.87
-20.57
-25.83
-30.32
-34.07
-37.39
-40.68
-44.13
-47.60
-50.54
-52.27
-52.13
-49.79
-45.31
-39.12
-31.91
-24.48
-17.54
-11.58
-6.84
-3.23
-0.50
1.74
3.76
5.71
7.48
8.82
9.35
8.69
6.63
3.28
-0.99
-5.49
-9.52
-12.62
-14.75
-16.26
-17.78
-19.92
-23.07
-27.23
-32.17
-37.54
-43.07
-48.61
-54.02
-59.07
-63.37
-66.36
-67.46
-66.16
-62.17
-55.40
-46.06
-34.59
-21.77
-8.49
4.27
15.75
25.48
33.44
39.88
45.17
49.64
53.50
56.90
59.96
62.80
65.46
67.87
69.84
71.09
71.48
70.97
69.76
68.09
66.22
64.26
62.15
59.65
56.38
51.96
46.20
39.18
31.36
23.31
15.48
7.95
0.43
-7.47
-15.83
-24.09
-31.13
-35.61
-36.59
-33.90
-28.07
-20.04
-10.61
-0.26
10.77
22.22
33.39
43.25
50.64
54.81
55.69
53.94
50.65
46.90
43.42
40.46
37.97
35.77
33.79
32.00
30.42
28.92
27.19
24.81
21.42
16.89
11.39
5.33
-0.77
-6.48
-11.67
-16.50
-21.33
-26.57
-32.43
-38.89
-45.71
-52.51
-58.90
-64.42
-68.46
-70.31
-69.27
-64.89
-57.24
-46.87
-34.70
-21.69
-8.62
3.95
15.54
25.65
33.78
39.55
42.97
44.48
44.76
44.59
44.54
44.90
45.68
46.70
47.66
48.31
48.42
47.91
46.84
45.26
43.17
40.49
37.11
33.00
28.26
23.16
17.93
12.69
7.37
1.77
-4.24
-10.75
-17.70
-25.02
-32.62
-40.38
-47.97
-54.84
-60.19
-63.12
-62.90
-59.16
-51.96
-41.84
-29.64
-16.32
-2.77
10.19
21.96
32.06
40.25
46.49
51.01
54.25
56.73
58.85
60.70
62.05
62.45
61.54
59.24
55.82
51.76
47.46
42.90
37.60
30.79
21.75
10.23
-3.30
-17.66
-31.20
-42.26
-49.69
-53.19
-53.44
-51.90
-50.46
-50.84
-54.24
-61.04
-70.83
-82.52
-94.59
-105.29
-112.84
-115.73
-112.95
-104.31
-90.46
-72.77
-53.04
-33.09
-14.46
1.84
15.28
25.84
33.74
39.40
43.27
45.76
47.25
48.04
48.35
48.33
48.04
47.45
46.49
45.18
43.59
41.81
39.84
37.50
34.49
30.49
25.41
19.50
13.23
7.12
1.46
-3.77
-8.83
-14.04
-19.60
-25.60
-32.09
-39.16
-46.91
-55.24
-63.62
-70.98
-75.96
-77.15
-73.63
-65.26
-52.66
-37.03
-19.77
-2.19
14.74
30.33
44.15
55.94
65.57
73.04
78.55
82.42
85.04
86.75
87.71
87.91
87.16
85.22
82.01
77.66
72.57
67.29
62.32
57.93
54.09
50.52
46.87
42.91
38.57
33.92
29.06
23.97
18.57
12.77
6.58
0.12
-6.35
-12.61
-18.56
-24.21
-29.73
-35.41
-41.59
-48.53
-56.37
-64.95
-73.77
-81.98
-88.48
-92.13
-91.99
-87.53
-78.75
-66.21
-50.80
-33.60
-15.65
2.19
19.22
34.89
48.72
60.26
69.25
75.62
79.55
81.43
81.83
81.29
80.27
79.04
77.65
76.04
74.06
71.57
68.49
64.82
60.62
55.93
50.82
45.35
39.70
34.13
28.92
24.30
20.26
16.51
12.56
7.89
2.19
-4.46
-11.69
-18.96
-25.78
-31.92
-37.45
-42.63
-47.83
-53.43
-59.73
-66.86
-74.62
-82.46
-89.46
-94.51
-96.55
-94.91
-89.44
-80.50
-68.80
-55.14
-40.26
-24.83
-9.42
5.35
18.86
30.51
39.91
46.89
51.55
54.18
55.18
54.98
54.01
52.64
51.17
49.78
48.49
47.20
45.76
44.04
41.97
39.54
36.71
33.45
29.68
25.34
20.50
15.31
10.03
4.88
0.02
-4.53
-8.85
-13.11
-17.41
-21.73
-25.99
-30.07
-34.01
-38.04
-42.53
-47.74
-53.56
-59.35
-64.05
-66.48
-65.72
-61.45
-53.99
-44.14
-32.90
-21.17
-9.65
1.18
10.93
19.36
26.24
31.48
35.13
37.37
38.48
38.77
38.53
37.99
37.23
36.30
35.13
33.69
32.01
30.20
28.41
26.74
25.18
23.58
21.68
19.23
16.10
12.35
8.21
3.98
-0.10
-3.94
-7.60
-11.22
-14.96
-18.89
-23.03
-27.41
-32.08
-37.13
-42.61
-48.36
-53.97
-58.81
-62.13
-63.28
-61.86
-57.78
-51.24
-42.66
-32.60
-21.67
-10.51
0.22
9.90
18.06
24.41
28.93
31.87
33.65
34.69
35.36
35.83
36.15
36.27
36.12
35.73
35.15
34.43
33.59
32.60
31.37
29.86
28.08
26.05
23.82
21.42
18.82
16.00
12.94
9.62
6.05
2.30
-1.54
-5.32
-8.93
-12.31
-15.51
-18.60
-21.69
-24.87
-28.24
-31.85
-35.79
-40.08
-44.60
-49.00
-52.70
-55.04
-55.36
-53.29
-48.74
-42.00
-33.55
-24.04
-14.13
-4.48
4.32
11.84
17.84
22.29
25.32
27.19
28.19
28.59
28.59
28.34
27.88
27.21
26.31
25.13
23.69
22.06
20.29
18.41
16.41
14.20
11.75
9.09
6.34
3.64
1.07
-1.38
-3.85
-6.48
-9.37
-12.49
-15.69
-18.79
-21.68
-24.38
-27.02
-29.82
-32.91
-36.32
-39.97
-43.62
-47.00
-49.79
-51.60
-52.05
-50.75
-47.45
-42.11
-35.03
-26.73
-17.86
-9.09
-0.91
6.33
12.47
17.45
21.30
24.07
25.93
27.11
27.89
28.55
29.26
30.03
30.74
31.20
31.21
30.67
29.58
27.97
25.91
23.50
20.84
18.04
15.25
12.58
10.07
7.68
5.25
2.65
-0.18
-3.24
-6.43
-9.61
-12.74
-15.82
-18.93
-22.12
-25.46
-29.00
-32.80
-36.96
-41.55
-46.39
-51.04
-54.81
-56.96
-56.89
-54.44
-49.81
-43.46
-35.90
-27.58
-18.86
-10.13
-1.87
5.39
11.19
15.31
17.87
19.26
19.95
20.38
20.79
21.27
21.82
22.45
23.16
23.96
24.81
25.60
26.11
26.11
25.43
24.02
22.05
19.82
17.66
15.82
14.31
13.00
11.61
9.87
7.60
4.83
1.78
-1.23
-3.87
-6.00
-7.78
-9.63
-12.19
-16.10
-21.80
-29.32
-38.23
-47.67
-56.59
-63.93
-68.91
-71.11
-70.48
-67.31
-62.01
-55.07
-46.93
-37.98
-28.69
-19.56
-11.10
-3.81
1.95
6.04
8.56
9.82
10.37
10.88
12.02
14.26
17.73
22.11
26.72
30.78
33.68
35.30
35.90
35.95
35.80
35.43
34.52
32.68
29.76
26.06
22.27
19.22
17.47
17.05
17.41
17.62
16.71
14.05
9.57
3.75
-2.55
-8.43
-13.20
-16.53
-18.46
-19.31
-19.45
-19.29
-19.15
-19.13
-19.03
-18.32
-16.28
-12.33
-6.30
1.30
9.42
16.77
22.35
25.74
27.16
27.20
26.54
25.60
24.50
23.26
21.86
20.42
19.03
17.68
16.20
14.32
11.78
8.55
4.82
0.96
-2.65
-5.77
-8.29
-10.28
-11.86
-13.17
-14.22
-15.02
-15.55
-15.87
-16.14
-16.56
-17.35
-18.62
-20.40
-22.56
-24.79
-26.54
-27.00
-25.29
-20.63
-12.65
-1.62
11.62
25.91
40.11
53.35
65.00
74.57
81.55
85.52
86.32
84.39
80.77
76.93
74.24
73.51
74.72
77.14
79.44
80.16
77.92
71.89
62.03
49.32
35.68
23.43
14.49
9.63
8.13
8.06
7.15
3.71
-2.76
-11.51
-20.99
-29.64
-36.55
-41.66
-45.71
-49.67
-54.32
-59.81
-65.67
-71.11
-75.29
-77.69
-78.10
-76.58
-73.30
-68.44
-62.21
-54.98
-47.34
-40.07
-34.04
-30.01
-28.42
-29.11
-31.29
-33.54
-34.25
-31.99
-26.07
-16.76
-5.23
6.82
17.79
26.61
33.20
38.30
43.21
49.08
56.39
64.60
72.28
77.63
79.15
76.25
69.26
59.23
47.45
35.09
23.07
12.09
2.68
-4.78
-10.25
-14.10
-17.08
-20.09
-23.95
-29.14
-35.63
-42.93
-50.24
-56.62
-61.22
-63.50
-63.38
-61.23
-57.80
-53.88
-50.01
-46.39
-42.80
-38.85
-34.36
-29.47
-24.72
-20.78
-18.16
-16.95
-16.83
-17.27
-17.79
-18.15
-18.35
-18.43
-18.41
-18.19
-17.73
-17.06
-16.46
-16.25
-16.70
-17.80
-19.35
-20.97
-22.35
-23.36
-24.06
-24.66
-25.37
-26.27
-27.23
-27.96
-28.09
-27.33
-25.56
-22.84
-19.41
-15.56
-11.56
-7.59
-3.79
-0.23
3.05
5.99
8.54
10.66
12.36
13.75
15.04
16.52
18.40
20.70
23.25
25.70
27.68
28.88
29.17
28.50
26.88
24.33
20.88
16.60
11.64
6.23
0.66
-4.71
-9.54
-13.53
-16.52
-18.60
-20.04
-21.25
-22.65
-24.56
-27.12
-30.28
-33.82
-37.36
-40.46
-42.66
-43.61
-43.18
-41.47
-38.73
-35.20
-31.09
-26.43
-21.21
-15.48
-9.38
-3.27
2.44
7.38
11.34
14.39
16.93
19.47
22.46
25.98
29.71
33.04
35.29
36.12
35.61
34.20
32.41
30.57
28.73
26.66
24.13
20.98
17.22
12.96
8.32
3.34
-2.06
-8.02
-14.80
-22.62
-31.59
-41.58
-52.11
-62.55
-72.18
-80.49
-87.23
-92.39
-95.97
-97.90
-98.00
-96.09
-92.20
-86.60
-79.80
-72.34
-64.61
-56.77
-48.84
-40.90
-33.19
-26.19
-20.39
-16.10
-13.33
-11.72
-10.75
-9.91
-8.88
-7.56
-5.99
-4.24
-2.35
-0.35
1.73
3.81
5.79
7.55
8.99
9.98
10.41
10.22
9.48
8.37
7.11
5.77
4.25
2.27
-0.42
-3.86
-7.85
-12.09
-16.31
-20.48
-24.64
-28.75
-32.49
-35.26
-36.43
-35.76
-33.59
-30.78
-28.36
-27.04
-26.93
-27.47
-27.75
-26.97
-24.71
-21.11
-16.57
-11.51
-6.07
-0.10
6.53
13.65
20.63
26.61
30.90
33.33
34.36
34.88
35.63
36.95
38.68
40.35
41.55
42.06
41.96
41.41
40.54
39.36
37.89
36.21
34.47
32.85
31.50
30.50
29.88
29.68
29.88
30.43
31.16
31.83
32.14
31.78
30.53
28.25
24.89
20.46
14.98
8.41
0.74
-7.93
-17.28
-26.79
-35.75
-43.42
-49.21
-52.74
-53.85
-52.53
-48.91
-43.14
-35.44
-26.12
-15.53
-4.13
7.63
19.22
30.15
39.94
48.23
54.84
59.75
63.10
65.15
66.17
66.50
66.46
66.32
66.16
65.84
64.94
62.91
59.33
54.11
47.57
40.35
33.17
26.50
20.48
14.93
9.52
4.06
-1.36
-6.39
-10.58
-13.63
-15.52
-16.65
-17.69
-19.41
-22.46
-27.13
-33.29
-40.33
-47.35
-53.34
-57.37
-58.78
-57.26
-52.86
-45.81
-36.58
-25.63
-13.57
-1.05
11.17
22.40
32.06
39.88
45.91
50.34
53.45
55.50
56.72
57.40
57.80
58.00
57.82
56.77
54.26
50.04
44.39
38.16
32.46
28.16
25.49
23.98
22.78
21.06
18.42
14.99
11.23
7.64
4.46
1.64
-1.12
-4.09
-7.36
-10.78
-14.01
-16.76
-19.00
-21.01
-23.22
-25.90
-28.93
-31.64
-33.02
-32.02
-27.93
-20.68
-10.90
0.24
11.24
20.64
27.38
31.08
32.14
31.67
31.04
31.50
33.63
37.29
41.68
45.76
48.66
49.91
49.53
47.83
45.21
42.07
38.73
35.52
32.71
30.45
28.68
27.07
25.13
22.38
18.53
13.63
8.05
2.34
-2.96
-7.48
-11.10
-13.92
-16.21
-18.29
-20.43
-22.75
-25.16
-27.34
-28.84
-29.18
-27.96
-24.92
-20.03
-13.38
-5.22
4.08
14.07
24.26
34.16
43.41
51.72
58.94
64.94
69.64
73.09
75.47
77.13
78.45
79.70
80.81
81.33
80.51
77.58
72.07
64.00
53.87
42.45
30.61
19.04
8.30
-1.32
-9.72
-17.00
-23.45
-29.40
-35.11
-40.52
-45.19
-48.34
-49.20
-47.37
-43.03
-37.02
-30.46
-24.43
-19.56
-15.86
-12.88
-10.01
-6.83
-3.37
0.03
2.82
4.67
5.55
5.73
5.61
5.46
5.43
5.46
5.54
5.72
6.15
6.92
7.93
8.84
9.17
8.51
6.67
3.84
0.52
-2.57
-4.74
-5.53
-4.80
-2.75
0.15
3.31
6.13
8.17
9.18
9.12
8.20
6.73
5.04
3.42
2.01
0.89
0.03
-0.67
-1.35
-2.15
-3.17
-4.45
-5.87
-7.20
-8.13
-8.41
-7.91
-6.67
-4.96
-3.23
-2.16
-2.52
-5.04
-10.19
-17.95
-27.72
-38.45
-48.94
-58.05
-65.00
-69.38
-71.14
-70.40
-67.42
-62.52
-56.09
-48.60
-40.62
-32.77
-25.62
-19.64
-15.07
-11.97
-10.11
-9.17
-8.76
-8.64
-8.74
-9.16
-10.13
-11.81
-14.19
-17.10
-20.19
-23.16
-25.79
-28.06
-30.11
-32.13
-34.31
-36.73
-39.34
-41.88
-43.83
-44.52
-43.29
-39.81
-34.32
-27.71
-21.35
-16.74
-15.07
-16.95
-22.22
-29.98
-38.88
-47.30
-53.72
-57.00
-56.53
-52.46
-45.59
-37.31
-29.23
-22.75
-18.69
-17.04
-17.04
-17.41
-16.91
-14.79
-10.99
-6.13
-1.19
2.81
5.13
5.45
3.84
0.71
-3.28
-7.51
-11.37
-14.56
-16.89
-18.40
-19.17
-19.42
-19.48
-19.86
-21.09
-23.52
-27.05
-31.04
-34.48
-36.37
-36.12
-33.69
-29.57
-24.37
-18.60
-12.51
-6.19
0.28
6.65
12.52
17.47
21.18
23.51
24.53
24.48
23.73
22.73
22.01
22.13
23.47
26.14
29.84
33.93
37.72
40.61
42.40
43.15
43.07
42.30
40.76
38.33
34.89
30.51
25.40
19.75
13.61
6.82
-0.68
-8.62
-16.22
-22.29
-25.73
-26.12
-23.99
-20.77
-18.06
-16.99
-17.68
-19.35
-20.80
-21.12
-19.99
-17.72
-14.73
-11.33
-7.48
-3.04
1.90
6.80
10.92
13.58
14.61
14.42
13.74
13.21
13.12
13.34
13.58
13.63
13.54
13.49
13.60
13.71
13.26
11.51
7.80
1.95
-5.50
-13.32
-19.85
-23.53
-23.44
-19.72
-13.56
-6.85
-1.50
1.21
0.93
-1.86
-6.22
-11.17
-15.83
-19.38
-21.01
-19.96
-15.89
-9.10
-0.68
7.86
15.04
19.87
22.03
21.79
19.84
17.18
15.08
14.92
17.87
24.42
34.06
45.29
56.10
64.65
69.84
71.43
69.83
65.68
59.51
51.72
42.72
33.16
23.91
15.91
9.81
5.66
2.82
0.21
-3.29
-8.23
-14.41
-20.99
-27.03
-32.03
-36.17
-40.10
-44.50
-49.60
-54.98
-59.74
-62.91
-63.80
-62.22
-58.44
-53.01
-46.71
-40.34
-34.70
-30.31
-27.28
-25.15
-23.02
-19.86
-14.88
-7.80
1.16
11.43
22.36
33.40
44.02
53.50
60.88
65.09
65.31
61.36
53.90
44.35
34.44
25.73
19.19
15.04
12.80
11.60
10.49
8.74
6.00
2.38
-1.70
-5.70
-9.13
-11.70
-13.37
-14.25
-14.53
-14.41
-14.12
-13.82
-13.53
-13.02
-11.78
-9.16
-4.66
1.81
9.72
18.07
25.67
31.58
35.35
37.10
37.30
36.50
35.17
33.54
31.74
29.85
28.04
26.56
25.73
25.80
26.82
28.44
29.99
30.60
29.54
26.50
21.80
16.25
10.84
6.36
3.10
0.88
-0.88
-2.85
-5.58
-9.34
-14.11
-19.52
-24.99
-29.79
-33.33
-35.29
-35.81
-35.44
-34.99
-35.16
-36.32
-38.34
-40.63
-42.36
-42.77
-41.28
-37.68
-32.05
-24.72
-16.21
-7.23
1.42
8.90
14.51
17.89
19.16
18.87
17.84
16.88
16.51
16.85
17.65
18.45
18.82
18.54
17.60
16.21
14.60
12.91
11.16
9.23
7.00
4.43
1.62
-1.24
-3.99
-6.53
-8.91
-11.22
-13.61
-16.15
-18.90
-21.87
-25.08
-28.62
-32.49
-36.61
-40.66
-44.13
-46.41
-46.98
-45.61
-42.35
-37.54
-31.62
-25.03
-18.09
-10.98
-3.90
2.94
9.21
14.62
18.92
22.05
24.20
25.72
26.97
28.20
29.45
30.57
31.35
31.68
31.63
31.39
31.15
30.96
30.63
29.93
28.64
26.73
24.37
21.79
19.20
16.69
14.23
11.78
9.31
6.84
4.38
1.91
-0.59
-3.13
-5.71
-8.30
-10.94
-13.74
-16.88
-20.46
-24.43
-28.47
-32.10
-34.81
-36.28
-36.34
-34.97
-32.22
-28.09
-22.59
-15.87
-8.30
-0.46
7.00
13.49
18.70
22.57
25.29
27.17
28.54
29.73
31.00
32.48
34.18
36.01
37.78
39.29
40.42
41.10
41.27
40.86
39.79
38.02
35.56
32.54
29.10
25.47
21.87
18.47
15.43
12.76
10.34
7.90
5.16
1.94
-1.71
-5.57
-9.35
-12.84
-16.04
-19.09
-22.20
-25.44
-28.74
-31.86
-34.46
-36.24
-36.93
-36.34
-34.36
-30.98
-26.30
-20.55
-14.06
-7.17
-0.18
6.61
12.93
18.52
23.12
26.62
29.06
30.66
31.74
32.56
33.24
33.73
33.84
33.37
32.22
30.46
28.26
25.86
23.45
21.14
18.88
16.57
14.05
11.22
8.12
4.90
1.80
-1.02
-3.47
-5.62
-7.64
-9.67
-11.80
-14.05
-16.42
-18.97
-21.80
-24.96
-28.32
-31.52
-34.00
-35.14
-34.53
-32.06
-27.96
-22.67
-16.68
-10.41
-4.23
1.55
6.61
10.68
13.56
15.20
15.71
15.32
14.37
13.21
12.16
11.45
11.15
11.18
11.34
11.36
11.03
10.27
9.09
7.63
5.97
4.17
2.27
0.33
-1.56
-3.30
-4.82
-6.20
-7.64
-9.38
-11.61
-14.37
-17.56
-20.93
-24.24
-27.27
-29.77
-31.50
-32.12
-31.33
-28.99
-25.19
-20.26
-14.68
-8.90
-3.26
2.08
7.02
11.46
15.25
18.21
20.24
21.39
21.82
21.80
21.55
21.14
20.58
19.80
18.78
17.57
16.25
14.89
13.50
12.03
10.43
8.64
6.63
4.37
1.86
-0.87
-3.71
-6.55
-9.24
-11.72
-13.98
-16.07
-18.07
-20.00
-21.90
-23.87
-25.97
-28.16
-30.15
-31.42
-31.34
-29.49
-25.83
-20.77
-14.98
-9.04
-3.31
2.20
7.63
13.03
18.26
22.94
26.66
29.13
30.29
30.29
29.51
28.37
27.22
26.27
25.57
25.01
24.47
23.86
23.16
22.40
21.53
20.37
18.70
16.32
13.24
9.66
5.97
2.55
-0.36
-2.77
-4.88
-6.95
-9.15
-11.54
-14.04
-16.55
-19.00
-21.40
-23.80
-26.23
-28.74
-31.38
-34.20
-37.24
-40.50
-43.78
-46.68
-48.62
-49.01
-47.38
-43.61
-37.89
-30.68
-22.54
-14.01
-5.52
2.60
10.10
16.78
22.49
27.17
30.92
33.88
36.28
38.28
39.93
41.17
41.87
41.91
41.29
40.16
38.72
37.16
35.56
33.87
31.99
29.81
27.36
24.83
22.38
20.10
17.95
15.73
13.25
10.44
7.41
4.40
1.68
-0.61
-2.46
-4.04
-5.56
-7.26
-9.29
-11.70
-14.42
-17.32
-20.22
-22.92
-25.33
-27.42
-29.32
-31.18
-33.11
-35.11
-37.02
-38.52
-39.23
-38.85
-37.22
-34.30
-30.21
-25.07
-19.04
-12.24
-4.86
2.84
10.49
17.65
23.82
28.68
32.04
33.98
34.76
34.76
34.29
33.53
32.55
31.30
29.76
27.98
26.08
24.18
22.34
20.48
18.50
16.28
13.87
11.40
9.05
6.95
5.18
3.70
2.45
1.39
0.52
-0.20
-0.83
-1.49
-2.29
-3.31
-4.54
-5.90
-7.30
-8.72
-10.29
-12.21
-14.72
-17.94
-21.73
-25.59
-28.81
-30.61
-30.46
-28.26
-24.38
-19.43
-14.04
-8.61
-3.27
1.98
7.09
11.94
16.31
20.09
23.28
25.98
28.24
30.02
31.09
31.18
30.14
28.01
25.07
21.70
18.27
15.07
12.25
9.88
7.94
6.34
4.89
3.45
1.87
0.10
-1.82
-3.84
-5.94
-8.13
-10.47
-13.03
-15.84
-18.86
-21.96
-24.94
-27.56
-29.57
-30.80
-31.20
-30.88
-30.09
-29.17
-28.51
-28.46
-29.28
-31.14
-34.08
-37.98
-42.57
-47.41
-51.87
-55.27
-57.03
-56.77
-54.43
-50.26
-44.73
-38.36
-31.55
-24.64
-17.89
-11.57
-6.02
-1.58
1.58
3.54
4.60
5.22
5.80
6.54
7.41
8.22
8.82
9.18
9.44
9.81
10.41
11.24
12.18
13.07
13.80
14.33
14.64
14.72
14.48
13.90
13.02
11.99
10.99
10.12
9.36
8.53
7.38
5.74
3.56
0.97
-1.85
-4.70
-7.44
-10.05
-12.62
-15.26
-18.06
-20.99
-23.84
-26.23
-27.71
-27.95
-26.88
-24.66
-21.62
-18.08
-14.22
-10.11
-5.75
-1.24
3.24
7.44
11.13
14.24
16.79
18.85
20.52
21.82
22.74
23.25
23.35
23.11
22.64
22.08
21.58
21.20
20.91
20.58
20.05
19.17
17.86
16.13
14.01
11.55
8.86
6.05
3.33
0.87
-1.22
-2.94
-4.38
-5.67
-6.95
-8.31
-9.79
-11.46
-13.37
-15.59
-18.15
-20.95
-23.83
-26.47
-28.52
-29.54
-29.18
-27.25
-23.80
-19.15
-13.79
-8.21
-2.74
2.50
7.47
12.14
16.31
19.73
22.25
23.93
25.05
26.00
27.01
28.09
29.04
29.65
29.83
29.70
29.46
29.27
29.13
28.96
28.61
28.02
27.19
26.12
24.78
23.14
21.16
18.89
16.40
13.76
11.03
8.21
5.32
2.40
-0.47
-3.20
-5.77
-8.23
-10.74
-13.47
-16.51
-19.89
-23.47
-27.05
-30.34
-32.99
-34.67
-35.08
-34.04
-31.55
-27.76
-22.99
-17.65
-12.14
-6.79
-1.82
2.65
6.56
9.92
12.72
15.00
16.79
18.13
19.11
19.77
20.20
20.45
20.56
20.59
20.56
20.50
20.37
20.15
19.81
19.32
18.69
17.94
17.06
16.08
15.04
13.99
13.05
12.32
11.87
11.67
11.65
11.65
11.54
11.25
10.80
10.30
9.86
9.56
9.43
9.40
9.38
9.32
9.24
9.21
9.33
9.66
10.23
11.07
12.33
14.29
17.31
21.68
27.36
33.98
40.84
47.26
52.74
57.13
60.56
63.27
65.47
67.30
68.93
70.54
72.27
74.04
75.28
75.11
72.56
67.10
58.92
48.92
38.30
28.10
18.81
10.35
2.35
-5.53
-13.35
-21.01
-28.32
-35.12
-41.28
-46.56
-50.60
-53.06
-53.80
-53.15
-51.82
-50.70
-50.50
-51.50
-53.50
-55.95
-58.26
-59.96
-60.91
-61.25
-61.25
-61.25
-61.41
-61.72
-61.89
-61.45
-59.88
-56.77
-51.94
-45.49
-37.75
-29.25
-20.51
-12.02
-4.09
3.09
9.50
15.15
20.14
24.54
28.46
31.94
35.00
37.57
39.59
40.98
41.77
42.09
42.18
42.33
42.82
43.80
45.26
47.00
48.74
50.21
51.30
52.16
53.11
54.44
56.20
58.01
59.18
58.88
56.52
51.93
45.46
37.78
29.83
22.54
16.61
12.17
8.69
4.95
-0.57
-9.11
-21.10
-35.90
-51.90
-67.11
-79.70
-88.51
-93.12
-93.72
-90.94
-85.63
-78.74
-71.23
-64.03
-57.81
-52.98
-49.61
-47.47
-46.10
-44.93
-43.41
-41.18
-38.19
-34.62
-30.87
-27.29
-24.04
-21.01
-17.91
-14.44
-10.41
-5.88
-1.11
3.45
7.26
9.84
10.81
10.12
8.01
5.02
1.78
-1.23
-3.82
-6.14
-8.52
-11.29
-14.58
-18.32
-22.27
-26.12
-29.59
-32.52
-34.88
-36.80
-38.57
-40.52
-42.90
-45.68
-48.42
-50.38
-50.76
-49.09
-45.42
-40.37
-34.82
-29.60
-25.04
-21.00
-16.97
-12.49
-7.33
-1.67
4.06
9.40
14.02
17.76
20.62
22.69
24.03
24.76
25.00
24.96
24.81
24.66
24.47
24.06
23.21
21.71
19.54
16.83
13.80
10.68
7.61
4.67
1.88
-0.66
-2.82
-4.46
-5.55
-6.21
-6.68
-7.20
-7.87
-8.57
-9.06
-9.09
-8.65
-8.01
-7.64
-8.02
-9.39
-11.65
-14.39
-17.15
-19.64
-21.78
-23.75
-25.70
-27.58
-29.07
-29.74
-29.21
-27.33
-24.21
-20.07
-15.19
-9.78
-4.01
1.86
7.48
12.37
16.17
18.66
19.98
20.50
20.72
21.03
21.65
22.54
23.52
24.38
25.00
25.40
25.67
25.91
26.17
26.38
26.37
25.92
24.82
22.93
20.25
16.93
13.23
9.45
5.88
2.70
-0.02
-2.29
-4.22
-5.96
-7.73
-9.75
-12.23
-15.23
-18.70
-22.43
-26.14
-29.59
-32.59
-35.02
-36.76
-37.68
-37.61
-36.39
-33.93
-30.31
-25.72
-20.45
-14.81
-9.11
-3.61
1.46
5.92
9.65
12.61
14.79
16.24
17.03
17.25
17.00
16.42
15.63
14.68
13.56
12.22
10.66
8.93
7.20
5.65
4.44
3.63
3.19
3.02
2.98
2.92
2.75
2.39
1.80
0.98
-0.10
-1.53
-3.36
-5.63
-8.22
-10.88
-13.35
-15.48
-17.37
-19.30
-21.66
-24.66
-28.24
-32.06
-35.65
-38.49
-40.19
-40.51
-39.31
-36.57
-32.35
-26.87
-20.45
-13.58
-6.78
-0.51
4.91
9.41
13.08
16.21
19.05
21.77
24.40
26.78
28.69
29.96
30.56
30.63
30.45
30.33
30.48
30.99
31.72
32.47
32.98
33.09
32.78
32.13
31.27
30.28
29.17
27.90
26.39
24.62
22.62
20.46
18.25
16.05
13.88
11.75
9.64
7.54
5.50
3.55
1.77
0.10
-1.59
-3.53
-5.99
-9.20
-13.17
-17.66
-22.20
-26.15
-28.94
-30.16
-29.62
-27.43
-23.85
-19.28
-14.13
-8.86
-3.82
0.74
4.70
8.09
10.99
13.46
15.41
16.67
17.05
16.54
15.32
13.79
12.41
11.59
11.47
11.97
12.86
13.85
14.72
15.36
15.78
16.08
16.32
16.55
16.73
16.75
16.46
15.80
14.76
13.43
11.93
10.29
8.46
6.32
3.77
0.85
-2.25
-5.26
-7.92
-10.12
-11.88
-13.32
-14.56
-15.74
-16.94
-18.28
-19.91
-21.94
-24.31
-26.76
-28.86
-30.12
-30.12
-28.63
-25.72
-21.62
-16.74
-11.50
-6.26
-1.27
3.32
7.42
10.94
13.76
15.79
17.05
17.72
18.14
18.66
19.45
20.37
21.05
21.10
20.31
18.76
16.75
14.68
12.84
11.32
10.10
9.16
8.59
8.54
9.12
10.27
11.75
13.21
14.29
14.83
14.83
14.40
13.67
12.67
11.41
9.93
8.40
7.11
6.40
6.44
7.15
8.12
8.75
8.38
6.43
2.60
-3.12
-10.35
-18.34
-26.12
-32.67
-37.15
-39.11
-38.57
-35.92
-31.78
-26.78
-21.44
-16.07
-10.87
-5.96
-1.45
2.54
5.89
8.60
10.79
12.74
14.81
17.27
20.15
23.21
25.93
27.77
28.37
27.73
26.22
24.38
22.65
21.21
19.89
18.32
16.20
13.49
10.37
7.18
4.20
1.52
-1.02
-3.63
-6.48
-9.58
-12.75
-15.80
-18.53
-20.77
-22.47
-23.63
-24.35
-24.85
-25.46
-26.53
-28.20
-30.38
-32.62
-34.28
-34.66
-33.24
-29.87
-24.76
-18.46
-11.75
-5.36
0.15
4.50
7.73
10.09
11.86
13.35
14.72
16.05
17.37
18.67
19.88
20.91
21.60
21.85
21.62
20.99
20.11
19.14
18.18
17.25
16.28
15.16
13.79
12.06
9.89
7.30
4.46
1.59
-1.04
-3.29
-5.21
-7.02
-8.94
-11.10
-13.40
-15.60
-17.41
-18.69
-19.52
-20.15
-20.87
-21.93
-23.39
-25.18
-27.11
-28.95
-30.45
-31.36
-31.42
-30.41
-28.18
-24.70
-20.15
-14.85
-9.26
-3.87
0.97
5.02
8.23
10.63
12.32
13.45
14.20
14.85
15.78
17.41
20.09
24.00
28.97
34.58
40.12
44.90
48.38
50.38
51.05
50.71
49.64
47.91
45.41
41.98
37.65
32.65
27.38
22.20
17.22
12.32
7.24
1.76
-4.13
-10.25
-16.30
-22.04
-27.30
-32.06
-36.33
-40.14
-43.49
-46.37
-48.76
-50.61
-51.82
-52.28
-51.83
-50.31
-47.65
-43.81
-38.89
-33.11
-26.77
-20.29
-14.05
-8.37
-3.48
0.50
3.59
5.89
7.58
8.87
9.98
10.99
11.90
12.56
12.84
12.71
12.35
12.04
12.06
12.56
13.45
14.51
15.50
16.35
17.14
18.00
19.03
20.09
20.87
21.01
20.25
18.54
16.11
13.29
10.44
7.79
5.42
3.21
0.91
-1.77
-5.07
-9.02
-13.45
-17.91
-21.82
-24.56
-25.67
-24.94
-22.43
-18.43
-13.34
-7.61
-1.62
4.30
9.86
14.86
19.13
22.59
25.23
27.11
28.34
29.07
29.46
29.66
29.80
29.94
30.07
30.12
29.97
29.54
28.80
27.81
26.65
25.38
24.00
22.49
20.91
19.52
18.70
18.83
20.07
22.25
24.82
26.98
27.90
27.00
24.05
19.26
13.12
6.20
-0.98
-8.20
-15.35
-22.37
-29.04
-34.92
-39.37
-41.86
-42.07
-40.04
-36.06
-30.51
-23.78
-16.19
-8.22
-0.48
6.30
11.43
14.62
16.00
16.14
15.76
15.44
15.37
15.40
15.23
14.62
13.54
12.20
10.87
9.76
8.89
8.17
7.49
6.76
6.07
5.56
5.34
5.46
5.85
6.35
6.75
6.88
6.68
6.15
5.37
4.39
3.18
1.57
-0.73
-3.97
-8.30
-13.60
-19.51
-25.48
-30.89
-35.14
-37.79
-38.62
-37.65
-35.11
-31.42
-27.05
-22.42
-17.80
-13.33
-9.07
-5.07
-1.46
1.54
3.77
5.14
5.71
5.62
5.10
4.38
3.64
3.04
2.65
2.43
2.22
1.78
0.86
-0.65
-2.72
-5.17
-7.80
-10.40
-12.92
-15.36
-17.73
-20.06
-22.31
-24.47
-26.56
-28.57
-30.50
-32.31
-33.92
-35.24
-36.23
-36.89
-37.29
-37.57
-37.88
-38.26
-38.54
-38.36
-37.15
-34.38
-29.72
-23.20
-15.21
-6.41
2.47
10.73
17.84
23.42
27.28
29.38
29.86
29.00
27.18
24.84
22.40
20.22
18.62
17.84
18.03
19.21
21.30
24.05
27.06
29.77
31.56
31.87
30.38
27.19
22.83
18.16
14.07
11.25
9.96
10.07
11.17
12.71
14.21
15.24
15.58
15.10
13.90
12.15
10.19
8.25
6.54
5.12
4.02
3.32
3.17
3.81
5.40
7.93
11.14
14.50
17.40
19.25
19.73
18.80
16.75
14.06
11.28
8.94
7.51
7.39
8.87
12.05
16.70
22.16
27.44
31.43
33.31
32.74
29.92
25.38
19.76
13.50
6.88
0.07
-6.84
-13.72
-20.52
-27.21
-33.79
-40.13
-45.92
-50.80
-54.42
-56.67
-57.74
-57.96
-57.68
-57.13
-56.46
-55.82
-55.38
-55.36
-55.89
-56.81
-57.68
-57.89
-56.88
-54.35
-50.33
-45.08
-38.97
-32.28
-25.17
-17.74
-10.12
-2.58
4.45
10.51
15.22
18.42
20.23
21.01
21.28
21.55
22.17
23.22
24.53
25.78
26.65
27.04
26.98
26.63
26.08
25.28
24.05
22.23
19.81
17.04
14.27
11.76
9.54
7.34
4.76
1.46
-2.68
-7.55
-12.92
-18.56
-24.27
-29.91
-35.29
-40.15
-44.19
-47.16
-48.92
-49.47
-48.87
-47.17
-44.40
-40.60
-35.89
-30.47
-24.62
-18.60
-12.59
-6.71
-1.06
4.21
8.89
12.75
15.66
17.61
18.73
19.23
19.36
19.39
19.49
19.84
20.48
21.35
22.29
23.04
23.38
23.17
22.43
21.26
19.80
18.11
16.22
14.16
12.00
9.92
8.12
6.79
5.91
5.30
4.68
3.75
2.35
0.46
-1.81
-4.35
-7.10
-10.08
-13.24
-16.44
-19.34
-21.49
-22.50
-22.22
-20.77
-18.52
-15.91
-13.32
-10.87
-8.57
-6.31
-4.03
-1.78
0.35
2.25
3.85
5.14
6.20
7.05
7.78
8.36
8.76
8.90
8.65
7.92
6.67
4.97
2.94
0.81
-1.20
-2.85
-3.95
-4.45
-4.34
-3.83
-3.19
-2.72
-2.63
-2.97
-3.60
-4.26
-4.68
-4.69
-4.21
-3.22
-1.76
0.22
2.74
5.78
9.28
12.96
16.51
19.50
21.49
22.13
21.17
18.51
14.29
8.89
2.89
-2.98
-8.01
-11.58
-13.34
-13.22
-11.36
-8.12
-3.93
0.74
5.35
9.30
12.01
13.05
12.29
10.10
7.32
5.03
4.25
5.53
8.85
13.58
18.78
23.47
26.97
29.03
29.74
29.42
28.38
26.82
24.80
22.31
19.34
16.00
12.49
9.09
6.00
3.26
0.72
-1.84
-4.58
-7.51
-10.41
-12.95
-14.82
-15.81
-16.01
-15.66
-15.13
-14.77
-14.75
-15.03
-15.40
-15.55
-15.19
-14.17
-12.52
-10.40
-8.06
-5.64
-3.10
-0.20
3.40
7.92
13.33
19.19
24.79
29.38
32.39
33.69
33.56
32.58
31.34
30.24
29.40
28.67
27.84
26.80
25.70
24.77
24.27
24.24
24.44
24.50
24.04
22.92
21.31
19.52
17.87
16.50
15.31
14.10
12.69
10.99
9.06
6.94
4.72
2.41
0.03
-2.38
-4.77
-7.07
-9.22
-11.16
-12.92
-14.61
-16.51
-19.01
-22.45
-26.91
-32.07
-37.20
-41.33
-43.56
-43.34
-40.61
-35.81
-29.66
-22.97
-16.41
-10.46
-5.34
-1.11
2.37
5.32
8.10
11.17
14.91
19.58
25.03
30.71
35.67
38.78
39.17
36.49
31.21
24.44
17.74
12.55
9.87
9.93
12.24
15.84
19.68
22.89
25.00
25.93
25.80
24.79
22.99
20.41
17.07
13.08
8.70
4.27
0.05
-3.81
-7.39
-10.92
-14.60
-18.54
-22.58
-26.29
-29.08
-30.47
-30.36
-29.17
-27.80
-27.28
-28.31
-30.93
-34.40
-37.49
-38.96
-38.01
-34.56
-29.12
-22.61
-15.96
-9.98
-5.19
-1.90
-0.18
0.07
-0.97
-2.92
-5.33
-7.71
-9.53
-10.38
-10.07
-8.66
-6.54
-4.31
-2.52
-1.48
-1.12
-1.03
-0.69
0.25
1.78
3.60
5.23
6.34
6.77
6.56
5.81
4.66
3.19
1.52
-0.15
-1.64
-2.92
-4.13
-5.64
-7.88
-11.07
-15.11
-19.49
-23.51
-26.44
-27.75
-27.23
-24.98
-21.32
-16.68
-11.52
-6.33
-1.53
2.49
5.46
7.33
8.31
8.85
9.61
11.23
14.20
18.65
24.32
30.53
36.35
40.83
43.30
43.50
41.72
38.55
34.79
31.05
27.70
24.79
22.13
19.41
16.39
12.97
9.24
5.43
1.76
-1.60
-4.61
-7.41
-10.19
-13.15
-16.37
-19.87
-23.60
-27.50
-31.50
-35.47
-39.17
-42.25
-44.23
-44.65
-43.17
-39.69
-34.48
-28.18
-21.78
-16.31
-12.57
-10.82
-10.67
-11.26
-11.58
-10.96
-9.38
-7.43
-6.04
-6.04
-7.74
-10.81
-14.39
-17.46
-19.27
-19.58
-18.75
-17.43
-16.34
-15.98
-16.52
-17.85
-19.75
-21.96
-24.30
-26.56
-28.48
-29.77
-30.26
-30.00
-29.36
-28.84
-29.01
-30.36
-33.22
-37.50
-42.75
-48.33
-53.49
-57.64
-60.31
-61.38
-61.14
-60.07
-58.41
-56.08
-52.82
-48.27
-42.39
-35.06
-26.25
-15.98
-4.24
9.24
24.57
41.34
58.61
75.04
89.83
102.73
113.79
121.83
125.70
125.14
120.85
115.16
108.31
100.14
90.56
79.59
67.10
54.15
42.27
33.05
27.73
26.75
30.05
36.80
45.57
54.65
62.73
68.90
72.63
73.76
72.38
69.16
65.13
61.35
58.48
56.63
55.05
52.30
46.76
37.19
23.32
5.78
-14.26
-35.37
-55.93
-74.22
-88.52
-97.38
-100.16
-97.21
-89.91
-80.20
-69.92
-60.28
-51.75
-44.26
-37.52
-31.22
-25.03
-18.66
-11.99
-5.32
0.59
4.62
5.72
3.35
-2.20
-9.85
-18.12
-25.59
-31.32
-34.93
-36.49
-36.25
-34.51
-31.39
-26.97
-21.36
-14.93
-8.26
-2.16
2.60
5.48
6.41
5.78
4.30
2.73
1.61
1.15
1.12
1.04
0.46
-0.81
-2.53
-4.18
-5.21
-5.30
-4.48
-3.08
-1.43
0.31
2.18
4.30
6.71
9.12
11.03
11.97
11.78
10.80
9.82
9.74
11.08
13.75
17.03
19.88
21.40
21.14
19.16
15.81
11.57
6.83
1.90
-2.82
-6.79
-9.39
-10.15
-8.98
-6.38
-3.34
-0.98
-0.19
-1.31
-4.10
-7.88
-11.96
-15.80
-19.20
-22.19
-24.84
-27.14
-28.94
-30.12
-30.59
-30.44
-29.78
-28.70
-27.21
-25.23
-22.72
-19.74
-16.44
-13.03
-9.63
-6.23
-2.73
0.93
4.67
8.17
11.03
12.91
13.74
13.78
13.48
13.28
13.45
14.03
14.86
15.77
16.62
17.33
17.86
18.11
17.87
16.96
15.28
12.91
10.04
6.98
3.96
1.16
-1.43
-3.79
-5.91
-7.69
-9.01
-9.85
-10.35
-10.91
-11.98
-13.94
-16.85
-20.37
-23.87
-26.57
-27.89
-27.63
-25.97
-23.36
-20.25
-16.86
-13.18
-9.02
-4.27
0.90
6.07
10.67
14.21
16.51
17.69
18.06
17.94
17.58
17.11
16.72
16.71
17.56
19.64
23.05
27.44
32.02
35.83
38.09
38.47
37.18
34.80
32.04
29.46
27.30
25.48
23.75
21.71
19.04
15.39
10.56
4.51
-2.41
-9.30
-14.82
-17.54
-16.57
-12.13
-5.71
0.35
3.78
3.23
-1.15
-7.95
-15.19
-21.18
-25.05
-26.81
-26.96
-25.95
-23.98
-20.95
-16.79
-11.69
-6.24
-1.25
2.49
4.46
4.64
3.43
1.51
-0.41
-1.89
-2.77
-3.19
-3.31
-3.14
-2.53
-1.24
0.82
3.43
6.07
8.18
9.32
9.44
8.76
7.65
6.40
5.15
3.94
2.76
1.71
0.94
0.57
0.61
0.96
1.36
1.54
1.21
0.17
-1.73
-4.58
-8.27
-12.50
-16.72
-20.23
-22.28
-22.31
-20.20
-16.22
-11.02
-5.33
0.21
5.17
9.44
13.04
16.08
18.65
20.80
22.58
23.99
25.05
25.72
25.97
25.79
25.26
24.49
23.58
22.63
21.71
20.86
20.07
19.26
18.26
16.81
14.69
11.82
8.31
4.48
0.72
-2.70
-5.71
-8.48
-11.23
-14.17
-17.30
-20.43
-23.24
-25.36
-26.58
-26.88
-26.54
-25.94
-25.49
-25.41
-25.68
-26.11
-26.45
-26.51
-26.17
-25.38
-23.99
-21.81
-18.63
-14.39
-9.17
-3.25
3.07
9.58
16.09
22.41
28.16
32.84
35.94
37.18
36.64
34.76
32.17
29.44
26.99
24.97
23.38
22.11
20.93
19.52
17.51
14.58
10.61
5.79
0.61
-4.32
-8.47
-11.61
-13.86
-15.57
-17.13
-18.82
-20.68
-22.57
-24.28
-25.66
-26.62
-27.19
-27.42
-27.46
-27.50
-27.75
-28.40
-29.53
-31.03
-32.68
-34.17
-35.26
-35.81
-35.75
-35.05
-33.60
-31.26
-27.92
-23.55
-18.35
-12.69
-7.07
-2.04
2.01
4.88
6.67
7.64
8.14
8.44
8.68
8.87
8.90
8.71
8.30
7.74
7.12
6.54
6.10
5.83
5.78
5.92
6.10
6.09
5.64
4.66
3.29
1.89
0.93
0.83
1.77
3.69
6.33
9.34
12.34
15.01
17.05
18.24
18.40
17.54
15.81
13.52
11.08
8.90
7.39
6.84
7.48
9.36
12.33
15.96
19.71
23.06
25.84
28.27
30.94
34.43
38.97
44.20
49.24
52.98
54.53
53.44
49.84
44.28
37.51
30.38
23.78
18.49
15.11
13.84
14.47
16.44
19.09
21.86
24.38
26.43
27.76
28.09
27.09
24.57
20.71
16.07
11.51
7.82
5.46
4.37
4.07
3.90
3.30
1.97
-0.11
-2.84
-6.06
-9.59
-13.05
-15.92
-17.57
-17.57
-15.87
-12.95
-9.56
-6.36
-3.69
-1.43
0.76
3.17
5.82
8.36
10.19
10.56
8.74
4.30
-2.74
-11.71
-21.28
-29.78
-35.64
-37.98
-36.98
-33.75
-29.93
-27.05
-25.95
-26.64
-28.47
-30.53
-32.10
-32.78
-32.52
-31.41
-29.57
-26.98
-23.68
-19.71
-15.33
-10.94
-7.02
-4.07
-2.45
-2.26
-3.42
-5.62
-8.50
-11.63
-14.68
-17.22
-18.82
-19.01
-17.41
-13.91
-8.73
-2.40
4.45
11.25
17.64
23.41
28.40
32.36
35.04
36.39
36.76
37.03
38.42
42.01
48.26
56.62
65.59
73.14
77.38
77.22
72.61
64.46
54.15
43.04
32.11
21.92
12.78
4.85
-1.72
-6.98
-11.21
-15.00
-19.10
-24.09
-30.18
-37.12
-44.32
-51.12
-56.98
-61.57
-64.71
-66.25
-66.08
-64.12
-60.46
-55.39
-49.39
-43.06
-36.95
-31.46
-26.81
-22.93
-19.66
-16.83
-14.43
-12.66
-11.77
-11.85
-12.66
-13.68
-14.33
-14.23
-13.33
-11.87
-10.13
-8.27
-6.29
-4.16
-1.96
0.08
1.71
2.69
2.82
1.92
-0.24
-3.78
-8.52
-13.82
-18.67
-22.06
-23.34
-22.54
-20.34
-17.79
-15.90
-15.34
-16.34
-18.79
-22.30
-26.38
-30.48
-34.07
-36.71
-38.06
